"V1" "V2" "V4" "V5" "V7" "V8" "V10" "V11" "V13" "V14" "V15" "V17" "V18" "V20" "V21" "V23"
"1" 3.61894851485435e-05 2.48104182706597e-05 3.48453217370449e-05 3.35224034095132e-05 3.18393181179261e-05 2.93302060588907e-05 4.20323345509862e-05 1.86949429518366e-05 3.6843254757622e-05 3.68827881823914e-05 2.73341705510449e-05 2.55135508380043e-05 4.37395962706069e-05 4.15790100651372e-05 4.56960405467491e-05 3.82637766448813e-05
"2" 6.54479804590141e-05 3.93085924754188e-05 5.47414333049213e-05 6.16015817397549e-05 3.52576922892457e-05 3.63922055798498e-05 3.7548217955578e-05 1.36212037810649e-05 4.6634868271913e-05 3.47797976017486e-05 3.37047176865565e-05 2.75748854804742e-05 4.77538167350581e-05 4.71162459584782e-05 5.22196416162498e-05 3.80472801210402e-05
"3" 9.46752074047087e-05 5.37658684755818e-05 7.4645971933748e-05 8.9645715378607e-05 3.8760814941373e-05 4.3452176377179e-05 3.31177820624039e-05 8.57985977942548e-06 5.6466489607291e-05 3.27066051490662e-05 4.00907306206238e-05 2.96570776299832e-05 5.17905551220427e-05 5.26923069988882e-05 5.87481324262559e-05 3.78130144645207e-05
"4" 0.000123782066587811 6.81198503119339e-05 9.4520772957906e-05 0.000117525473055771 4.24412350832062e-05 5.05063882667312e-05 2.88083797033883e-05 3.59546713238436e-06 6.63548560657646e-05 3.06936982111893e-05 4.64847784185105e-05 3.17794266894737e-05 5.58591141852911e-05 5.83336095835641e-05 6.52807316109777e-05 3.75417452603044e-05
"5" 0.000152672794119384 8.23099337043299e-05 0.000114326098428214 0.000145113038351654 4.63872901821983e-05 5.75500117811082e-05 2.46911147755252e-05 -1.30447314595078e-06 7.63205802713449e-05 2.87673885668255e-05 5.28963320561942e-05 3.39571104069085e-05 5.99760337636815e-05 6.40643338076528e-05 7.1815160405809e-05 3.72213728679635e-05
"6" 0.000181254823978065 9.62703661185125e-05 0.000134024442734352 0.000172273461885506 5.06821359341352e-05 6.45732422376626e-05 2.08166211808234e-05 -6.09127552453205e-06 8.63777707417197e-05 2.69527728112625e-05 5.9327793899011e-05 3.62049337290452e-05 6.41546513358098e-05 6.99093520444115e-05 7.83505643280274e-05 3.68333216023785e-05
"7" 0.000209437197691487 0.000109945568688927 0.000153576960847132 0.000198887488672223 5.54076608275063e-05 7.15758495037538e-05 1.72517210464264e-05 -1.07473259101626e-05 9.6529191522083e-05 2.52735829068245e-05 6.57723546472187e-05 3.853185408901e-05 6.83962683730286e-05 7.58784688120516e-05 8.48738091306453e-05 3.63587642928093e-05
"8" 0.000237130214628577 0.000123275536604772 0.000172945017501431 0.000224825894725603 6.06369513097854e-05 7.85428877550333e-05 1.40513892456353e-05 -1.52426461741905e-05 0.000106796858687396 2.37542024453282e-05 7.22331492982155e-05 4.09495493482362e-05 7.27151364164357e-05 8.19981519883522e-05 9.13869579850779e-05 3.57859750178499e-05
"9" 0.000264245178105184 0.000136198790526416 0.000192084030247612 0.000249970325843516 6.64351137459438e-05 8.54654624360698e-05 1.12602479050589e-05 -1.95634575278326e-05 0.000117194679057103 2.2419388532509e-05 7.87136136063783e-05 4.34754040729711e-05 7.711904731821e-05 8.82904757082936e-05 9.78870707795391e-05 3.51033695897918e-05
"10" 0.000290698398839953 0.000148671770175446 0.000210963946326508 0.000274212781085704 7.28675991496788e-05 9.2341703054576e-05 8.92915468750688e-06 -2.36864543036075e-05 0.000127706721534351 2.12756870575428e-05 8.52035665589085e-05 4.61039705443717e-05 8.1605715970326e-05 9.47438384504975e-05 0.000104356039951442 3.42919563983934e-05
"11" 0.000316405302898592 0.000160632030985378 0.000229536007399095 0.000297436131917333 7.99788407586931e-05 9.9150509613546e-05 7.09229623927102e-06 -2.76029311268449e-05 0.000138343822806894 2.03442863065208e-05 9.16965198774657e-05 4.88445539658508e-05 8.61739194537053e-05 0.000101378688913399 0.000110788365509444 3.33385613731389e-05
"12" 0.000341289934304801 0.000172039034108496 0.000247770780739407 0.000319549114398791 8.78185909156692e-05 0.000105885800169264 5.78875196796912e-06 -3.1293348217758e-05 0.000149101231484834 1.96369754650073e-05 9.81926079280738e-05 5.16957529711123e-05 9.08229172979116e-05 0.000108194850264583 0.000117172114615584 3.22362017259001e-05
"13" 0.000365274477998788 0.000182847514939843 0.00026562487479551 0.000340452827782615 9.64129844890855e-05 0.000112528991671912 5.035193837021e-06 -3.4752855913872e-05 0.000159958510360533 1.91568102503589e-05 0.000104672013977452 5.46503842438459e-05 9.55408630615122e-05 0.000115179612512583 0.000123486847924583 3.09655411606398e-05
"14" 0.000388287508885364 0.000193018533499082 0.000283061645677051 0.000360064359894349 0.000105786338467176 0.000119069114677962 4.8571658338134e-06 -3.79730102854605e-05 0.000170908538817762 1.89077139644193e-05 0.000111127882408363 5.77034307819385e-05 0.000100318756320572 0.00012232970221858 0.000129719618444821 2.95233979436166e-05
"15" 0.00041026082794382 0.000202514413804949 0.000300045537607178 0.000378305547862052 0.000115948593478069 0.000125484467714029 5.26492487363244e-06 -4.09537032489871e-05 0.000181926373534023 1.8889144213041e-05 0.000117545874451555 6.08439560067258e-05 0.000105139518653407 0.000129625470630346 0.000135845773390226 2.78933551456772e-05
"16" 0.000431135064429598 0.000211303509626558 0.000316533763297703 0.000395114125329882 0.000126898788622099 0.000131759443817442 6.25915230300167e-06 -4.36907035091701e-05 0.000192994185611354 1.91034069574691e-05 0.000123912024672117 6.40588342656805e-05 0.000109990413541622 0.000137053779991063 0.000141852580965455 2.60719321628661e-05
"17" 0.000450850514746949 0.000219359912258385 0.000332497896959937 0.000410428560610401 0.000138625235396888 0.000137871838191543 7.83922406541642e-06 -4.61896876917877e-05 0.000204067731915086 1.9531751217896e-05 0.000130201386955402 6.7322954320104e-05 0.00011483563064102 0.000144577884816608 0.000147707576683219 2.40457848502961e-05
"18" 0.000469359181463928 0.000226663755518545 0.000347899771751269 0.000424207439043314 0.000151106101069324 0.000143802984398606 9.99293197781547e-06 -4.84566078118046e-05 0.000215118278638813 2.01715270284129e-05 0.000136396240371185 7.06198705307288e-05 0.000119658261321361 0.000152172275234864 0.000153386591031037 2.18152273823245e-05
"19" 0.000486609071145977 0.000233193644150296 0.000362708327130041 0.000436414816887961 0.000164303238400631 0.000149526538780968 1.26975198583537e-05 -5.05037945592529e-05 0.000226105495281144 2.09996771026553e-05 0.000142473994005945 7.39198064514828e-05 0.000124424811696188 0.0001597990293615 0.00015886297046306 1.93694009588289e-05
"20" 0.000502559425911898 0.000238929314459856 0.000376881283805595 0.000447019020840675 0.000178167848540349 0.000155016972452101 1.59211174610111e-05 -5.23425224666693e-05 0.000236991217750864 2.20040387384794e-05 0.000148415131853962 7.72001910607374e-05 0.000129106240611766 0.000167421607726103 0.000164106506958078 1.67065845797029e-05
"21" 0.000517180074360486 0.000243875443521813 0.000390400820273684 0.000456015585006052 0.000192647741738962 0.00016025488156406 1.96412279602993e-05 -5.39872107862779e-05 0.00024772013571504 2.31606026390347e-05 0.000154187037362117 8.04253265051281e-05 0.000133664920948828 0.000174992279658348 0.000169086627749437 1.38249196444456e-05
"22" 0.000530438974496303 0.000248019982548048 0.000403236466257697 0.000463396317671684 0.000207669115642526 0.000165210039404041 2.38062570223478e-05 -5.54591878336053e-05 0.000258236476855726 2.44410686161944e-05 0.000159762958811493 8.35598429371698e-05 0.000138057672822538 0.000182457687213795 0.00017376971274322 1.07201433989479e-05
"23" 0.000542313133957317 0.000251365468317866 0.000415355910024556 0.000469170628689554 0.000223153911465238 0.000169855750212366 2.83689342685258e-05 -5.67786554768971e-05 0.00026848983355748 2.5819585266934e-05 0.000165117268216928 8.65657361382705e-05 0.000142246026733018 0.000189766134806214 0.0001781227251276 7.39185695626439e-06
"24" 0.000552793032716961 0.000253919155447137 0.0004267389549327 0.000473361241797251 0.000239015402808077 0.000174167439323372 3.32809304236797e-05 -5.79690282499891e-05 0.000278418463246518 2.72636215456228e-05 0.000170218573640872 8.94047188644007e-05 0.000146189026289522 0.000196864572963987 0.000182112102920886 3.84530981548778e-06
"25" 0.000561860272829576 0.000255691724703771 0.000437363641046079 0.000475993421476282 0.000255157945433984 0.000178118247528825 3.84744663702142e-05 -5.90587175721859e-05 0.000287962942613189 2.87414801923435e-05 0.000175036704330286 9.20360322532507e-05 0.000149838952958177 0.000203690843019078 0.000185702132912907 7.70373290159058e-08
"26" 0.000569511990909802 0.000256688608190519 0.000447208729342344 0.000477104732962195 0.000271470257023658 0.000181677415975246 4.38821948333476e-05 -6.00730847088337e-05 0.000297056339987677 3.02166937578196e-05 0.000179538760056843 9.44145618888505e-05 0.000153149253461699 0.000210179731778412 0.000188857066537164 -3.90898254615871e-06
"27" 0.000575764348275899 0.000256941910199692 0.000456270007440152 0.000476756261334727 0.000287852903784057 0.000184827567722161 4.94479195735979e-05 -6.10412650446189e-05 0.000305644292415498 3.16576240277511e-05 0.000183703056160905 9.65011403687095e-05 0.000156084473144072 0.000216281176416801 0.000191550499651578 -8.10109246970136e-06
"28" 0.000580615858124535 0.000256463709186562 0.000464527097685989 0.000474995582910095 0.000304180981859538 0.000187535311373535 5.50850618181198e-05 -6.1995881717772e-05 0.000313656253509829 3.30235206392949e-05 0.000187492249906989 9.82493069968261e-05 0.000158590526202775 0.000221921415319652 0.00019374382963394 -1.25002502639444e-05
"29" 0.000584086635687175 0.00025527822488213 0.00047196801158721 0.000471894882581743 0.000320333610473308 0.000189780609007676 6.0724289451597e-05 -6.29654126843659e-05 0.000321033680578398 3.42790595671777e-05 0.000190880148890766 9.96168265647795e-05 0.000160625534054439 0.000227044728933678 0.000195408027626193 -1.7097945983017e-05
"30" 0.0005862021287091 0.00025342459505212 0.00047859901496663 0.000467532057844123 0.000336187212568971 0.000191544052823077 6.62862149139006e-05 -6.39845807717689e-05 0.000327702399723825 3.53850940335329e-05 0.000193833667471076 0.000100554770600771 0.000162143938444387 0.000231578802310474 0.000196511571300303 -2.18863828900009e-05
"31" 0.000586989127805683 0.000250926264231816 0.00048440851004328 0.000461983606689465 0.000351617921199939 0.000192800673022404 7.16940562223409e-05 -6.50821355341222e-05 0.000333617450134684 3.63079504709338e-05 0.000196333739988087 0.000101033319277731 0.000163110254356156 0.000235478253199588 0.000197029629581982 -2.68522086828284e-05
"32" 0.000586483963988447 0.000247821466426044 0.000489409625141395 0.000455344304145022 0.000366496962544524 0.000193537779662156 7.68695880633472e-05 -6.6288259727535e-05 0.00033870588573451 3.70082662710861e-05 0.000198349163133137 0.000101000365173217 0.000163483619887496 0.000238673649667823 0.000196936110345425 -3.1990495008757e-05
"33" 0.000584728412122931 0.000244144498897399 0.000493606821615541 0.000447708404910935 0.000380701146280383 0.000193737529687538 8.17324767691597e-05 -6.76397901020693e-05 0.000342920196931425 3.74516792712489e-05 0.000199861014566519 0.000100423761250696 0.000163224546265653 0.000241112955724241 0.000196210104677673 -3.72877219244942e-05
"34" 0.000581763956593462 0.000239937281101926 0.00049700837936432 0.000439173581764562 0.000394102419991637 0.000193390380033816 8.62082581282496e-05 -6.91607571234443e-05 0.000346202548851905 3.76068259486678e-05 0.000200846019504209 9.92650655818769e-05 0.000162302880617051 0.000242740493327939 0.000194829063624751 -4.27333818261619e-05
"35" 0.000577641992809353 0.00023523351964027 0.000499631113692949 0.000429837122050777 0.000406579234868601 0.000192479337857158 9.02188425593929e-05 -7.08819627643713e-05 0.000348516925371929 3.74412181092318e-05 0.000201287919288536 9.74951829154644e-05 0.000160692905029905 0.000243517237267044 0.000192779151093397 -4.83138819025478e-05
"36" 0.000572426614939174 0.000230085744849897 0.000501501771011735 0.000419812921781383 0.000418025587799825 0.000191010805256676 9.37039589153459e-05 -7.28280343666367e-05 0.000349808751655219 3.69278172733143e-05 0.000201171004730604 9.50839562928474e-05 0.000158371732947276 0.000243395317385663 0.000190050523927142 -5.40136102501972e-05
"37" 0.000566165711877131 0.000224523855139104 0.000502631314309057 0.000409202424523422 0.00042832102549602 0.000188970652758749 9.6585992045087e-05 -7.50231692839393e-05 0.000350046085864685 3.6039363421853e-05 0.000200482494423305 9.20070701042704e-05 0.000155315427157851 0.000242338034832915 0.000186632298030611 -5.98255808268377e-05
"38" 0.000558924766745838 0.000218593252497126 0.000503055696044316 0.000398111992061802 0.000437367440003313 0.000186366502853152 9.88082124375413e-05 -7.74879943043109e-05 0.000349193418658926 3.47544151519645e-05 0.000199216021493828 8.8242101348656e-05 0.000151508619272712 0.000240309299838744 0.000182520952137891 -6.57332019274206e-05
"39" 0.000550770612104607 0.000212340041572889 0.000502798455001981 0.000386647359887194 0.000445071370816056 0.000183201661826508 0.000100314236999896 -8.024551936819e-05 0.000347225940877258 3.30496911874789e-05 0.000197361835120674 8.37746448646907e-05 0.000146942970875896 0.00023728699854362 0.000177713214157635 -7.17256255489142e-05
"40" 0.00054177206600649 0.000205802668881224 0.000501899816191028 0.000374917576259521 0.000451349839612395 0.000179487748617641 0.000101057393555392 -8.33050971134141e-05 0.000344129832802221 3.09158593313295e-05 0.000194922581165343 7.85937890895865e-05 0.00014162148824034 0.000233254780098265 0.000172222649229149 -7.77828391713971e-05
"41" 0.000531994029619098 0.00019901796610803 0.000500391477821429 0.000363019217807807 0.000456125673826316 0.000175230525620495 0.000100992091763016 -8.66852189933006e-05 0.00033989059302293 2.83372996969153e-05 0.000191897791483009 7.26952501904714e-05 0.000135539054336019 0.000228198847539138 0.00016604739494433 -8.3897963809986e-05
"42" 0.00052151360088836 0.000192032241702855 0.000498316225317595 0.000351056616373615 0.000459337833284135 0.000170452332818781 0.000100084878916221 -9.03840047057168e-05 0.000334505356245363 2.53077828725265e-05 0.000188297439940663 6.60776948910943e-05 0.000128712591788994 0.000222116283493392 0.000159212120724542 -9.00519922545632e-05
"43" 0.000510396574725819 0.000184877386196948 0.000495711406165802 0.000339120151797505 0.000460934028495038 0.000165170224683447 9.8304961866692e-05 -9.44177776065841e-05 0.000327974187956871 2.18200533433972e-05 0.000184125532688262 5.87450022273489e-05 0.0001211454594219 0.00021500635775714 0.000151724035976519 -9.62385808654547e-05
"44" 0.000498721044657685 0.000177599345179274 0.000492624961050438 0.000327305146656227 0.000460880145638995 0.000159411971372541 9.56426175987652e-05 -9.87809952392675e-05 0.000320304214676505 1.78778986097415e-05 0.000179397384826011 5.07098612441738e-05 0.000112864962981386 0.000206882634928741 0.000143609901407053 -0.000102439150931369
"45" 0.000486552865868776 0.000170217149047403 0.000489095762855071 0.000315688045465567 0.000459145616655697 0.000153200584038236 9.20775932020836e-05 -0.000103470335237944 0.000311526967591191 1.34853141041291e-05 0.00017413571533761 4.19909521055533e-05 0.000103897546050281 0.000197765359932415 0.000134900005132449 -0.000108645059444721
"46" 0.000473965133664989 0.000162773023732405 0.00048517260030922 0.000304351065176691 0.000455720134989663 0.00014656652441532 8.76086027343794e-05 -0.000108480112251983 0.000301652883047097 8.64719451601131e-06 0.000168352252127028 3.26048627857e-05 9.42669442014974e-05 0.000187674934725919 0.000125618222717198 -0.000114843665402129
"47" 0.000461026055424956 0.000155294236875161 0.000480901736234262 0.000293363595761532 0.000450609149280056 0.000139544895775996 8.22467930521856e-05 -0.000113794363333222 0.000290735159414257 3.38194387200471e-06 0.000162081492738905 2.2588341672113e-05 8.40218211390989e-05 0.000176658463393241 0.000115806984931644 -0.000121024089142293
"48" 0.000447802832606461 0.00014780249677778 0.000476328275410291 0.000282786944927123 0.000443820812884015 0.000132171008258573 7.60022372482526e-05 -0.000119403208648968 0.000278794198109833 -2.30148864560508e-06 0.000155339854480794 1.1965068263756e-05 7.3190737122765e-05 0.00016473724645608 0.0001054944896386 -0.000127177794391307
"49" 0.000434366393143213 0.000140329776920123 0.000471501096278055 0.000272681085971664 0.000435386531369875 0.000124483407182436 6.89012110836681e-05 -0.000125277578816794 0.000265898571687711 -8.37497377978971e-06 0.000148170877270255 7.83540273515829e-07 6.18397892725155e-05 0.000151978722226847 9.47352271384488e-05 -0.000133289763569097
"50" 0.000420774858854218 0.000132892379798189 0.000466466622375246 0.000263089136274474 0.000425348180429719 0.000116524816989343 6.09741321278654e-05 -0.000131404708391087 0.000252082559285256 -1.48215232602896e-05 0.00014059880063736 -1.09230288369157e-05 5.00025526709185e-05 0.000138420373987738 8.35620939468173e-05 -0.000139357318987364
"51" 0.000407083886481209 0.000125510750803828 0.000461259709011311 0.000254048478101798 0.000413752176537585 0.000108334614998591 5.22539588037038e-05 -0.000137748570801452 0.00023741698381773 -2.16156654110819e-05 0.000132662813055348 -2.31050526367825e-05 3.77374636717011e-05 0.00012412887992742 7.20242028991938e-05 -0.000145370880435315
"52" 0.000393360345421547 0.000118199020492794 0.000455935997710793 0.000245593794353462 0.000400670790099619 9.99604230628782e-05 4.27903418173268e-05 -0.000144283308442302 0.00022196369821121 -2.87265685896826e-05 0.000124402113973527 -3.57078052937772e-05 2.51074679020795e-05 0.000109170238370186 6.01753751716035e-05 -0.00015132194849494
"53" 0.000379654105008882 0.00011097724861277 0.000450532195796132 0.000237748621892465 0.000386179967113074 9.14475687581493e-05 3.26374446184199e-05 -0.000150970649371711 0.00020580077569877 -3.61195445556759e-05 0.000115856573108681 -4.86788820160816e-05 1.21735623299793e-05 9.36185603193928e-05 4.80672829530477e-05 -0.000157201577089155
"54" 0.000366015837825133 0.000103847239268705 0.0004450878458641 0.000230523820741313 0.000370365092925937 8.2841225823806e-05 2.18504641368498e-05 -0.000157771218552027 0.000189011470253491 -4.37603660507079e-05 0.000107076835761382 -6.19546266740902e-05 -9.96150748403072e-07 7.75546801452865e-05 3.57578027786382e-05 -0.000163002573805422
"55" 0.000352489636908771 9.68223305508787e-05 0.000439640993154787 0.000223924861113222 0.000353321370148001 7.41853653485213e-05 1.04932288381439e-05 -0.000164648262632261 0.000171659669402285 -5.16187373730543e-05 9.8095960059202e-05 -7.54822217753387e-05 -1.43419826894281e-05 6.10459164833076e-05 2.32912557920382e-05 -0.000168721605514632
"56" 0.000339124792459464 8.99108807241203e-05 0.000434227097613428 0.000217955265849488 0.000335156304974143 6.55314983402336e-05 -1.36573036727629e-06 -0.000171556002938681 0.000153842452298597 -5.96523291513192e-05 8.89644498296391e-05 -8.91926395608725e-05 -2.77936789773783e-05 4.4183822846528e-05 1.07328030141715e-05 -0.000174351961718321
"57" 0.000325951979437008 8.31171122723175e-05 0.000428872638851899 0.000212598430816196 0.000315976724903239 5.69211486077385e-05 -1.36547085027428e-05 -0.000178455484241658 0.000135628818622817 -6.78304405026713e-05 7.97219879367089e-05 -0.000103027105462075 -4.12945763278347e-05 2.70393693700247e-05 -1.87326460137387e-06 -0.00017989090922282
"58" 0.000313020978814786 7.64498979988783e-05 0.000423618984110613 0.00020784922305123 0.000295912942434426 4.8406984388152e-05 -2.6294703055695e-05 -0.000185294586337137 0.000117127172588396 -7.61054807816229e-05 7.04213821317169e-05 -0.000116914255105932 -5.47571656254764e-05 9.71803480212841e-06 -1.44576048347741e-05 -0.00018532722696309
"59" 0.000300353509109438 6.99017554175483e-05 0.000418481863498054 0.000203676911293044 0.000275079940198904 4.00262607452004e-05 -3.92078232780935e-05 -0.000192030083214595 9.84123301576217e-05 -8.44438597889602e-05 6.11045677976993e-05 -0.000130791834943603 -6.81267305947183e-05 -7.70498595614394e-06 -2.69749397644289e-05 -0.000190661518204711
"60" 0.000287986257260115 6.3481658616755e-05 0.000413491889952539 0.00020005876623289 0.000253611381974594 3.1829306292988e-05 -5.2315678434914e-05 -0.000198608763963457 7.95817551139723e-05 -9.28045781775658e-05 5.18181906271546e-05 -0.00014459212153944 -8.13361342935476e-05 -2.51333076110654e-05 -3.93627826706451e-05 -0.000195885643371918
"61" 0.000275939513877369 5.71893500570135e-05 0.000408661744122929 0.000196960050741125 0.000231639476741149 2.38526185842334e-05 -6.55352205950996e-05 -0.00020498366479091 6.07180405626901e-05 -0.000101150974493137 4.26009586315812e-05 -0.000158252037475227 -9.43228094229557e-05 -4.24880656875876e-05 -5.15773291876443e-05 -0.000200995667663078
"62" 0.000264239821847762 5.10245846288183e-05 0.00040401411858945 0.000194342975931005 0.000209299549047841 1.61396740590903e-05 -7.87826615768713e-05 -0.000211112191748558 4.19093937758098e-05 -0.00010944615760102 3.35001244743994e-05 -0.000171707617990537 -0.00010702212019488 -5.96827309253988e-05 -6.35621466288565e-05 -0.000205984466948869
"63" 0.000252907721422045 4.49879550732189e-05 0.000399559181686852 0.000192167864476936 0.000186726686594193 8.72821753989416e-06 -9.19750897174159e-05 -0.000216940025459604 2.32453561778224e-05 -0.000117652008271985 2.4552446607578e-05 -0.000184897005903034 -0.000119376480305903 -7.66250055613053e-05 -7.52657908323415e-05 -0.000210846370429984
"64" 0.000241965293315007 3.9080137363506e-05 0.000395314267236844 0.000190389520712615 0.000164060934428384 1.65374439227099e-06 -0.000105031397593769 -0.000222424563204566 4.80982840351758e-06 -0.000125733845744287 1.58026365476713e-05 -0.000197759352843827 -0.000131325389336532 -9.32394417965272e-05 -8.66431398446837e-05 -0.000215575603460421
"65" 0.000231420428274531 3.33001145457847e-05 0.000391274194998722 0.000188959225290615 0.000141429021887154 -5.05410346007605e-06 -0.000117877429424197 -0.000227517212691997 -1.33220412234233e-05 -0.000133661073557738 7.283838418548e-06 -0.000210240315471073 -0.000142825564624365 -0.000109450038529433 -9.76512978896848e-05 -0.000220168394710929
"66" 0.000221288555088145 2.76534410798023e-05 0.000387457818174875 0.000187827843878703 0.000118971820563331 -1.13586854088124e-05 -0.00013042606616992 -0.000232181169475809 -3.10708255760227e-05 -0.000141403641414399 -9.71392207035296e-07 -0.000222284504420802 -0.000153823376820134 -0.00012517977185284 -0.000108247332889122 -0.000224615264633523
"67" 0.000211586734292107 2.21366736777037e-05 0.000383856432330294 0.000186947484906075 9.68151575656516e-05 -1.72360122277284e-05 -0.000142608816588889 -0.000236370697273597 -4.83686331435479e-05 -0.000148929466639773 -8.93091296628357e-06 -0.000233842858870665 -0.00016427555288515 -0.000140359587969066 -0.000118393242167087 -0.000228907849724342
"68" 0.000202316399864628 1.67562953808925e-05 0.000380471945826681 0.000186265246155723 7.50842885774448e-05 -2.26649612280047e-05 -0.000154350188952483 -0.000240051559079692 -6.51419385344078e-05 -0.00015621799221857 -1.65618260331617e-05 -0.000244868862124885 -0.000174145019975829 -0.000154923282134631 -0.000128053399142976 -0.000233037618489191
"69" 0.000193494130120965 1.15133525987882e-05 0.000377305057032093 0.000185732355237695 5.39050272052962e-05 -2.76208858027049e-05 -0.000165580793858033 -0.000243185244405613 -8.13267087248528e-05 -0.000163239546016962 -2.38429287895918e-05 -0.000255317882388931 -0.00018339094710072 -0.000168807520678899 -0.000137192369282096 -0.000236993123471862
"70" 0.000185121173633119 6.41395098721078e-06 0.000374343615335521 0.000185295787915526 3.3387321675097e-05 -3.20888326265858e-05 -0.000176240856240824 -0.00024574403082714 -9.68671793686067e-05 -0.000169976308963759 -3.07484806429919e-05 -0.00026515470336881 -0.000191987605520767 -0.000181960154592809 -0.000145782643700375 -0.000240767032773503
"71" 0.000177199186012768 1.46018819399517e-06 0.000371577203490981 0.000184908215251658 1.36441821149777e-05 -3.60549738881213e-05 -0.000186272914414984 -0.00024770072957588 -0.000111712259911984 -0.0001764123638845 -3.72600996978499e-05 -0.000274344706929497 -0.000199909745118201 -0.000194327073591471 -0.000153800808283527 -0.000244345509852293
"72" 0.000169739397223871 -3.34063622342395e-06 0.000368998399029193 0.000184519846611399 -5.22286445051171e-06 -3.95088861651772e-05 -0.000195615436646311 -0.000249029242091258 -0.000125809705434417 -0.000182529363476749 -4.33615292319987e-05 -0.000282858549467615 -0.000207135510843706 -0.000205869525756343 -0.000161225799545251 -0.000247716847932847
"73" 0.0001627440012349 -7.97952169993482e-06 0.000366592313514296 0.000184090841144903 -2.31205739321961e-05 -4.24446850270131e-05 -0.000204224353253718 -0.000249715647242609 -0.000139124368932236 -0.000188317073819832 -4.90390330805237e-05 -0.000290673974801341 -0.000213651862792599 -0.000216546942507766 -0.000168037297467665 -0.000250871100534302
"74" 0.000156215634624083 -1.24498545337747e-05 0.000364352219385433 0.000183575947304276 -3.99540046441324e-05 -4.48571608609498e-05 -0.000212049146728036 -0.000249737793715855 -0.000151610692708263 -0.000193761777815265 -5.42810030922848e-05 -0.000297766364865115 -0.000219441727925298 -0.00022631997367952 -0.000174214968664782 -0.000253786507478807
"75" 0.000150151528007976 -1.67441764239285e-05 0.000362251223088056 0.000182935707561295 -5.5653153474243e-05 -4.67546544335144e-05 -0.000219063220328875 -0.000249093181734928 -0.000163242386097296 -0.000198860506586737 -5.9079288291638e-05 -0.000304125662935833 -0.000224506100708707 -0.00023516925411899 -0.000179757491132537 -0.000256453499576514
"76" 0.000144556808597999 -2.08532956023339e-05 0.000360275161099864 0.000182134612166575 -7.0145972322969e-05 -4.81372137944852e-05 -0.000225226953231558 -0.000247771365126425 -0.000173993070776417 -0.000203605716103956 -6.34321230808072e-05 -0.000309738410241451 -0.000228838221196594 -0.000243065251973081 -0.000184648753391462 -0.000258853735422912
"77" 0.000139435194014574 -2.47665003588397e-05 0.000358408009227842 0.000181143417152935 -8.33667216462071e-05 -4.90132584904879e-05 -0.000230514566248814 -0.000245771717989363 -0.000183838395378556 -0.000207993410303283 -6.73361032129281e-05 -0.000314597767758612 -0.000232443131784176 -0.00024999763795771 -0.000188884189649322 -0.000260970419100591
"78" 0.000134784476063444 -2.84709066813078e-05 0.000356630576952693 0.000179933208796019 -9.52687141762406e-05 -4.93968221876151e-05 -0.000234908701780392 -0.000243101922774 -0.000192768845951431 -0.000212025398850215 -7.07922704614553e-05 -0.000318707643812815 -0.000235324731709638 -0.000255953276268927 -0.000192463859261568 -0.000262785537078979
"79" 0.000130603853055865 -3.19606308576839e-05 0.000354923124108652 0.000178477920556403 -0.00010580546423419 -4.9302039942313e-05 -0.000238395945601762 -0.0002397704228525 -0.000200772395812064 -0.000215705018125502 -7.38038264153912e-05 -0.000322068970723773 -0.000237500761849333 -0.000260926791102679 -0.000195388369391664 -0.000264282361912
"80" 0.000126893561835783 -3.52243896048212e-05 0.000353266248078809 0.000176759528213095 -0.000114944144681927 -4.87495248762711e-05 -0.000240971796616173 -0.000235787039540304 -0.000207845395949397 -0.000219034517081763 -7.63789155138914e-05 -0.000324688270313217 -0.000238980328377048 -0.000264921874272573 -0.000197661081289544 -0.000265442246452274
"81" 0.00012365501706334 -3.82477719151022e-05 0.00035164164857328 0.000174766670658631 -0.000122662618688674 -4.77611648603818e-05 -0.000242626868436124 -0.000231174030929248 -0.000213978794772181 -0.000222016488165541 -7.85223772684323e-05 -0.000326574984215164 -0.000239779087891006 -0.00026793439272522 -0.000199284859022155 -0.00026624355055344
"82" 0.000120888699951633 -4.10209348268553e-05 0.000350031732158124 0.000172488755904913 -0.000128941576473797 -4.6356589271844e-05 -0.000243365877479634 -0.000225949090822254 -0.000219184344654494 -0.000224656780382597 -8.02441727823305e-05 -0.000327745920405454 -0.000239916285819286 -0.000269976263354418 -0.000200268707895489 -0.000266666311218265
"83" 0.00011859523996317 -4.35353902758606e-05 0.000348414777169188 0.00016992070097633 -0.000133775178457428 -4.45697949893879e-05 -0.000243205357879312 -0.000220141395554462 -0.000223460040737465 -0.000226965505783966 -8.15549679905992e-05 -0.000328216977215366 -0.00023941806555138 -0.000271058750185658 -0.000200620180689013 -0.00026669158728532
"84" 0.000116769631983667 -4.57826026774431e-05 0.000346778196032032 0.000167060805916022 -0.000137170060284473 -4.24297213369377e-05 -0.000242154733018866 -0.0002137853072941 -0.000226827936004762 -0.000228950270446699 -8.24738213593285e-05 -0.000328013614777967 -0.000238310243545381 -0.00027120529778837 -0.000200357180030736 -0.000266303388370398
"85" 0.000115415914059672 -4.77448639162767e-05 0.000345108561224915 0.00016391459660071 -0.000139135304615653 -3.99636805004725e-05 -0.000240235867066747 -0.000206910114783129 -0.000229297517121804 -0.000230623258420841 -8.30084369431345e-05 -0.000327160456989597 -0.000236618669624138 -0.000270430438524027 -0.00019948918009287 -0.000265478726386316
"86" 0.000114527693469698 -4.94193496372858e-05 0.000343389999240525 0.000160492259422527 -0.000139689767240161 -3.72070829473806e-05 -0.0002374776449157 -0.000199553953952294 -0.000230896195461221 -0.000231994208642731 -8.3181451750583e-05 -0.000325685180851014 -0.000234378055467533 -0.000268764674021691 -0.000198037276628916 -0.000264204153414454
"87" 0.000114107373982367 -5.07972269052925e-05 0.000341609437975782 0.000156803200951445 -0.000138859784565322 -3.41975770212067e-05 -0.000233903598939903 -0.000191759386935108 -0.000231630227430599 -0.000233068785123952 -8.3001149670435e-05 -0.000323611327776068 -0.000231607575260717 -0.000266228708960523 -0.000196010509043905 -0.000262457685674468
"88" 0.000114153297005339 -5.18712863435598e-05 0.000339760814103488 0.000152868444353584 -0.00013668200372276 -3.09662101645016e-05 -0.000229551302386529 -0.000183570699244611 -0.000231538413175922 -0.000233861845110096 -8.24921071594063e-05 -0.000320979987618038 -0.000228351090186188 -0.000262855529126447 -0.000193432967249857 -0.000260225305742476
"89" 0.000114661004334591 -5.26305830438246e-05 0.000337836778144211 0.000148706590517622 -0.000133195034731091 -2.7553913516273e-05 -0.000224456523561652 -0.000175033951944122 -0.000230644917918777 -0.000234385188015498 -8.16711199474822e-05 -0.000317821391006162 -0.000224635771226413 -0.000258680142215189 -0.000190322338724589 -0.0002574944977882
"90" 0.000115630693820453 -5.30693409808701e-05 0.000335835056155429 0.000144344158765257 -0.000128449161248604 -2.39972967498202e-05 -0.000218662015707312 -0.000166193548696434 -0.000228977432007482 -0.00023464931744764 -8.05534847929788e-05 -0.000314171206447511 -0.000220496848636944 -0.000253734819310455 -0.000186697370990115 -0.000254247962868294
"91" 0.000117060538858799 -5.31847800032011e-05 0.000333754713735953 0.000139810507983441 -0.000122494916797423 -2.03278122174254e-05 -0.000212207232002608 -0.00015709980495305 -0.000226573200210559 -0.000234664249934192 -7.9158768190237e-05 -0.00031006711179315 -0.000215967478574662 -0.000248057909750317 -0.000182579466411014 -0.000250475375540333
"92" 0.000118942638997555 -5.2966472293028e-05 0.000331598781767897 0.000135136659457425 -0.000115392245008369 -1.65855798581891e-05 -0.000205140101546915 -0.00014780964664982 -0.000223471897727897 -0.00023444344347427 -7.75118196580106e-05 -0.000305549171482244 -0.000211084376682298 -0.000241694675489897 -0.000177991913994005 -0.000246172527527168
"93" 0.000121280110147812 -5.24176008766234e-05 0.000329375944544692 0.000130356742277252 -0.000107201779366128 -1.28034760449186e-05 -0.000197504679002384 -0.000138364054385521 -0.000219700860064565 -0.000233992211478185 -7.5620728663152e-05 -0.000300653800377841 -0.000205875851947019 -0.000234680353822074 -0.000172953191336796 -0.0002413250473401
"94" 0.000124061857583339 -5.15313794010647e-05 0.000327091477225721 0.000125505931224694 -9.79954389370589e-05 -9.01957015428273e-06 -0.000189357599393297 -0.000128823929679768 -0.000215314854504365 -0.000233327998296397 -7.35165488580248e-05 -0.000295426254886888 -0.000200386212360289 -0.000227063268255706 -0.000167495346853169 -0.000235938188593147
"95" 0.000127285242260233 -5.03090132275182e-05 0.00032475996809752 0.000120624864806394 -8.78363094241902e-05 -5.26286821639864e-06 -0.000180741529196933 -0.000119231576899282 -0.000210339530765237 -0.000232453488367013 -7.12059347300143e-05 -0.000289898082768514 -0.000194636460926289 -0.000218879402915911 -0.000161628992491701 -0.000230001642143783
"96" 0.000130943910802292 -4.87453158661918e-05 0.000322396851190162 0.00011575343751101 -7.68042781073861e-05 -1.5633014879253e-06 -0.000171712266217813 -0.000109645810724255 -0.000204831570968364 -0.000231382357898183 -6.87165685673095e-05 -0.000284118674656899 -0.000188671356606902 -0.000210183981436529 -0.000155387657188304 -0.00022352517658587
"97" 0.000135030923819659 -4.68466059367335e-05 0.000320021061871287 0.000110930159891954 -6.4969178544432e-05 2.04751872387083e-06 -0.000162313863665155 -0.000100112667363435 -0.000198829638587007 -0.000230122190496629 -6.60608031144043e-05 -0.000278121271410376 -0.000182515359026949 -0.000201016425806937 -0.000148791043301107 -0.000216513294360375
"98" 0.000139537293774514 -4.46074468033899e-05 0.000317661459866817 0.000106199827322132 -5.24041607104475e-05 5.5476758747748e-06 -0.000152600457718482 -9.06743158234205e-05 -0.000192376172356504 -0.000228677758084758 -6.32544245600397e-05 -0.000271947103911726 -0.000176200267906832 -0.000191419550173393 -0.000141860324760554 -0.000208967502557614
"99" 0.000144451608363057 -4.20335040465679e-05 0.000315333726858608 0.000101603145293922 -3.91912970027394e-05 8.91401250852281e-06 -0.000142621747209549 -8.13846515738536e-05 -0.000185526807917364 -0.000227062421716132 -6.03159017596785e-05 -0.000265635710282129 -0.000169760157053939 -0.000181450410843963 -0.000134623471127154 -0.000200909874707111
"100" 0.000149767237222068 -3.91263876185082e-05 0.000313075454464845 9.71834339845454e-05 -2.54019119075567e-05 1.21252202693267e-05 -0.000132416530312431 -7.22824443127018e-05 -0.000178319588928472 -0.000225278228366091 -5.7259295676269e-05 -0.000259222164617986 -0.000163218785130018 -0.000171145160545696 -0.000127101936730844 -0.000192349345164058
"101" 0.000155471079172801 -3.58961658525032e-05 0.000310916594637638 9.29802605643873e-05 -1.11147180112501e-05 1.5166594855439e-05 -0.000122038168484583 -6.34056434665665e-05 -0.000170808415802757 -0.000223332254714431 -5.4099086943063e-05 -0.000252742713326523 -0.000156608621769901 -0.000160555474102783 -0.000119316562884279 -0.000183309519571107
"102" 0.000161547456145356 -3.23395174142541e-05 0.000308887307643916 8.9033818248652e-05 3.59992432661882e-06 1.80235848772252e-05 -0.000111528170525488 -5.47964128798447e-05 -0.000163032531533985 -0.00022123209755585 -5.08467493191883e-05 -0.000246231452754316 -0.000149948116229213 -0.000149722647599588 -0.000111293729063205 -0.000173810055022637
"103" 0.000167981257713211 -2.84674435966608e-05 0.0003070281353442 8.53841007274839e-05 1.866624269257e-05 2.06879742529396e-05 -0.000100925698249926 -4.64827803204377e-05 -0.000155047480596903 -0.000218981470870152 -4.75183307561719e-05 -0.000239722449523271 -0.000143267507501818 -0.000138698585265857 -0.000103056679986246 -0.000163883610930968
"104" 0.000174756822179277 -2.42849404926369e-05 0.000305373089742137 8.20666008992412e-05 3.40149157831147e-05 2.31531237695042e-05 -9.02695803721841e-05 -3.85001680548966e-05 -0.000146904070969711 -0.000216589253861856 -4.41230695229262e-05 -0.000233249117151881 -0.000136593714777925 -0.000127527681823408 -9.46302076136094e-05 -0.000153558154708063
"105" 0.000181854714557867 -1.98124930900805e-05 0.000303961215959939 7.91105520660031e-05 4.95802983575588e-05 2.54120981884616e-05 -7.9599603470129e-05 -3.0869089766967e-05 -0.00013862596744959 -0.000214051669644062 -4.06683398021469e-05 -0.000226828478087105 -0.000129934928293586 -0.000116239620748309 -8.6027686172707e-05 -0.000142865210523663
"106" 0.000189252683384727 -1.50435707774576e-05 0.000302830628484023 7.65539608698947e-05 6.52945685600333e-05 2.74718168535502e-05 -6.89417935268815e-05 -2.3615305216695e-05 -0.000130285345342243 -0.000211382945825219 -3.71724986963988e-05 -0.000220501908414679 -0.00012332588671916 -0.00010489587262085 -7.72852687359202e-05 -0.000131850514914658
"107" 0.000196929349702332 -9.99912775877207e-06 0.000302021693588804 7.44183742014315e-05 8.10968564377989e-05 2.93298176488978e-05 -5.83322737828654e-05 -1.67589396094025e-05 -0.000121913352547743 -0.000208584915696914 -3.36377913091426e-05 -0.000214287509549521 -0.000116778698834424 -9.35292983952607e-05 -6.84179300997152e-05 -0.00012055312208947
"108" 0.000204858110707853 -4.69181999657703e-06 0.000301569724260411 7.27287508822506e-05 9.69294651592914e-05 3.0994598272827e-05 -4.77975095024008e-05 -1.0304412456499e-05 -0.000113547464647938 -0.000205659064298627 -3.00684853131368e-05 -0.000208204032664406 -0.000110305682312754 -8.21733820449792e-05 -5.9449737503124e-05 -0.000109015003741627
"109" 0.000213014581890199 8.6542876459891e-07 0.000301519940022293 7.15088889953195e-05 0.00011273715449439 3.24756980015716e-05 -3.73584734905094e-05 -4.26706593837769e-06 -0.000105236367876423 -0.000202614222787148 -2.647966883068e-05 -0.00020227406973653 -0.000103930292184593 -7.08762234043309e-05 -5.04024133697518e-05 -9.72893434945974e-05
"110" 0.000221364111184693 6.66054425541524e-06 0.000301899083332547 7.07696014334289e-05 0.000128470066179275 3.3785581661085e-05 -2.7038870702925e-05 1.34860031104168e-06 -9.70215726354236e-05 -0.000199454873550409 -2.28772029114668e-05 -0.000196518678391022 -9.76668479851879e-05 -5.96732882219421e-05 -4.13035049234608e-05 -8.54252602909219e-05
"111" 0.000229880974447371 1.26723078779302e-05 0.000302746259028209 7.05254945966247e-05 0.000144082746974107 3.49369011494365e-05 -1.68576494918675e-05 6.5446232723212e-06 -8.89291915465297e-05 -0.000196184553794674 -1.92608685900325e-05 -0.000190945726886252 -9.1522176475178e-05 -4.85951234524944e-05 -3.21708516357326e-05 -7.34765005125829e-05
"112" 0.000238525453330954 1.8881340510524e-05 0.000304086411995806 7.07760840159604e-05 0.000159525067157998 3.59415605833192e-05 -6.83817748167897e-06 1.13181885429465e-05 -8.10107202901891e-05 -0.000192817802160032 -1.56427749740217e-05 -0.000185578420542889 -8.5523870517737e-05 -3.76881725177919e-05 -2.30350940303258e-05 -6.15034221537514e-05
"113" 0.000247264536814777 2.52745630875665e-05 0.000305953509688506 7.1528901469699e-05 0.000174763487079266 3.68232556223794e-05 3.01536707188856e-06 1.56820831819376e-05 -7.3291566525145e-05 -0.000189357080175069 -1.20270963897782e-05 -0.000180421596713237 -7.96750235424487e-05 -2.69747765245416e-05 -1.39181761739449e-05 -4.95620375177193e-05
"114" 0.000256059585766226 3.18220820336998e-05 0.000308371513745517 7.27799992377892e-05 0.000189758348937159 3.75938055489746e-05 1.26858708484195e-05 1.96462833351254e-05 -6.57952253857389e-05 -0.000185806316576115 -8.41673231622134e-06 -0.000175483191757173 -7.39856929969264e-05 -1.64865554554947e-05 -4.8391186224419e-06 -3.7709474546736e-05
"115" 0.00026487469719584 3.85166355355909e-05 0.000311360819286134 7.45220167659951e-05 0.000204480181646259 3.82823739503652e-05 2.2165918835899e-05 2.3222140508237e-05 -5.85715008404381e-05 -0.000182185173326425 -4.82137891574558e-06 -0.000170777092673863 -6.84730997433652e-05 -6.26370574982138e-06 4.16928242176624e-06 -2.60141190072274e-05
"116" 0.000273659415791054 4.53176513202142e-05 0.000314928310364525 7.6736269766357e-05 0.000218894496201221 3.88950131902612e-05 3.14405961841472e-05 2.64259760278406e-05 -5.16263865480364e-05 -0.000178497211582027 -1.2399477110501e-06 -0.000166305294847172 -6.31439516292747e-05 3.67348416573127e-06 1.3085587049365e-05 -1.45334916202554e-05
"117" 0.000282378976788145 5.22185918156668e-05 0.00031909890846089 7.94119861670842e-05 0.00023297936358594 3.94621204517095e-05 4.05072244540843e-05 2.92804199679459e-05 -4.50080480076697e-05 -0.000174762430193783 2.31249878202471e-06 -0.000162078480221031 -5.80181055353414e-05 1.32864881974588e-05 2.1876593855196e-05 -3.33854839352234e-06
"118" 0.000290984718371109 5.9181152622483e-05 0.000323863993605121 8.25202520417643e-05 0.000246707463490076 3.99968289323315e-05 4.93592582675658e-05 3.18058003648903e-05 -3.8718072821089e-05 -0.000170984613331025 5.83652030113216e-06 -0.000158091631159744 -5.30938798427797e-05 2.25615919052315e-05 3.05229961869035e-05 7.51904198503113e-06
"119" 0.00029942982378581 6.61829929781039e-05 0.000329231235754667 8.60350004349429e-05 0.000260056172724357 4.05192324940625e-05 5.79852693315799e-05 3.40242074195539e-05 -3.27917884148126e-05 -0.000167187750069142 9.3217192263566e-06 -0.000154355646641463 -4.83987106023352e-05 3.14624818101104e-05 3.89891837004856e-05 1.79658025765912e-05
"120" 0.000307669855848478 7.32028399802779e-05 0.000335193695595221 8.9928205338653e-05 0.000273009168892036 4.10467538953183e-05 6.63874769589494e-05 3.59629375009292e-05 -2.72446707690213e-05 -0.000163384179340174 1.27651016311384e-05 -0.000150868360011697 -4.39332599184356e-05 3.99708539632699e-05 4.7249815968661e-05 2.79454507870389e-05
"121" 0.000315656836496608 8.02049549556507e-05 0.000341736431053893 9.4158188973742e-05 0.000285547193869315 4.15924344332991e-05 7.45544656224529e-05 3.76467144159918e-05 -2.20899257953545e-05 -0.00015959072132018 1.61546646242969e-05 -0.000147630355172776 -3.97131422972618e-05 4.80608482080012e-05 5.52778006119117e-05 3.73976351474281e-05
"122" 0.000323345037942075 8.71740592265205e-05 0.000348843351850869 9.86906038675035e-05 0.000297653416693736 4.21728043134279e-05 8.24816694342904e-05 3.91014270890345e-05 -1.7364320965588e-05 -0.000155835241632309 1.94767691040035e-05 -0.000144652049639673 -3.57592529387892e-05 5.5695313335032e-05 6.30298378259464e-05 4.62564779682619e-05
"123" 0.000330682785345021 9.40732263425563e-05 0.000356489352480656 0.000103480571901257 0.00030931185988016 4.27984167572992e-05 9.01678317525952e-05 4.03577960565872e-05 -1.30610084967951e-05 -0.000152131163985452 2.27267708685046e-05 -0.0001419264291634 -3.20795632369446e-05 6.28694086618971e-05 7.04874694519081e-05 5.44735192567127e-05
"124" 0.000337625922634875 0.000100876957383973 0.000364643806632988 0.000108480502852305 0.000320506960682544 4.34749474731166e-05 9.75999568554986e-05 4.14392040958849e-05 -9.20633996616128e-06 -0.000148506267181735 2.58913415030025e-05 -0.000139460911293702 -2.86902336124778e-05 6.95501487265763e-05 7.76068879183162e-05 6.19876101510698e-05
"125" 0.000344129323283609 0.000107555978365714 0.000373268120153448 0.000113642954779259 0.000331227003116866 4.42131185075655e-05 0.000104771319786652 4.23721805245062e-05 -5.80436939746281e-06 -0.000144979644665014 2.89583169210189e-05 -0.000137251892716855 -2.56081301519354e-05 7.57211925129179e-05 8.43653231163997e-05 6.87518802520875e-05
"126" 0.000350146096429626 0.00011408928787088 0.000382326973228793 0.000118916906241626 0.000341457912145465 4.50130313506994e-05 0.000111680730922561 4.3184145719125e-05 -2.87509489643836e-06 -0.000141581229210663 3.19130072173943e-05 -0.00013530672585623 -2.28462831490798e-05 8.13553948247458e-05 9.07234768888636e-05 7.47177646116822e-05
"127" 0.000355634703092659 0.00012043996461606 0.000391764288587839 0.000124248671838094 0.000351185768295088 4.58734679314913e-05 0.000118313481227227 4.38974656211043e-05 -4.17823608105983e-07 -0.000138334914837653 3.47435945463544e-05 -0.000133621811386811 -2.04228439209281e-05 8.64418459730767e-05 9.66509746638678e-05 7.98438256653375e-05
"128" 0.000360555890005746 0.00012659265406112 0.000401532241578066 0.000129588752953079 0.000360400705949134 4.67966748423284e-05 0.000124664037477921 4.45359583428674e-05 1.54788907990685e-06 -0.000135267616447582 3.74297962875538e-05 -0.00013220616449841 -1.83568484366334e-05 9.09511667013268e-05 0.000102114082378804 8.40927125310122e-05
"129" 0.000364869476617517 0.000132517745396095 0.00041157255451545 0.000134877928560004 0.00036908263632443 4.77752257943719e-05 0.000130717839942708 4.51214651135813e-05 3.01745962439745e-06 -0.000132408109933591 3.99584263236937e-05 -0.000131063095374622 -1.66667221211637e-05 9.48709077729109e-05 0.000107079024095649 8.74269527528292e-05
"130" 0.000368542187566786 0.000138186192753246 0.000421820457513224 0.000140061374984662 0.000377221266766644 4.87943778451978e-05 0.00013646454099176 4.56735028086321e-05 3.99160268490617e-06 -0.000129782661260362 4.23118798133177e-05 -0.000130191668851353 -1.53629723340016e-05 9.81840657115393e-05 0.000111513233193533 8.98232927339861e-05
"131" 0.000371543129882108 0.00014358373058839 0.000432212528716417 0.000145088484716128 0.000384802082944883 4.98513740233073e-05 0.00014189895629869 4.62056611309378e-05 4.45361742901095e-06 -0.000127420024886753 4.44706573133541e-05 -0.000129601153887664 -1.44723446389188e-05 0.000100868530289011 0.000115388200371139 9.12564421061668e-05
"132" 0.000373839065484579 0.000148680205876635 0.000442671878874098 0.000149901718909743 0.000391805587280024 5.09217639614103e-05 0.00014699383504757 4.67376346915784e-05 4.40574724998151e-06 -0.000125347738679902 4.64175028694969e-05 -0.0001292964583225 -1.40049866051517e-05 0.00010291351147523 0.000118668630295777 9.17107126040909e-05
"133" 0.000375410994361157 0.000153458364483769 0.000453132243311547 0.000154448205893105 0.000398218880201314 5.19914067668831e-05 0.000151745611577706 4.72775597323226e-05 3.85127308415033e-06 -0.000123590093694203 4.8134273887711e-05 -0.000129277268544494 -1.39772022452673e-05 0.000104310886614853 0.000121333983202753 9.11788279291126e-05
"134" 0.000376242399075138 0.000157904003562764 0.000463514710245119 0.000158683073160612 0.000404031175474014 5.30440968879781e-05 0.000156141987864372 4.78403430253287e-05 2.78232511165712e-06 -0.000122173581953637 4.96049877240288e-05 -0.000129551822731335 -1.44025513036443e-05 0.000105044923916457 0.000123355744973832 8.96570765186619e-05
"135" 0.00037630932053407 0.000161993547876958 0.000473740739823355 0.000162547804347534 0.000409214712292829 5.40468128847102e-05 0.000160158316951145 4.84282195879994e-05 1.19744712564285e-06 -0.000121123206922277 5.08059895295639e-05 -0.000130125818165714 -1.52991974019369e-05 0.000105103946544232 0.000124705986359037 8.7145545779543e-05
"136" 0.000375612378074873 0.000165713108823148 0.000483736665521539 0.00016600399029885 0.00041376450462782 5.49809027397687e-05 0.000163791560382525 4.90499670536705e-05 -8.89349633555721e-07 -0.000120459417623215 5.17235086673042e-05 -0.000131000395725638 -1.66687769445462e-05 0.000104489775685546 0.000125374092301831 8.36583978637737e-05
"137" 0.000374140608436166 0.000169053748393958 0.000493418599238189 0.00016900585542184 0.000417659878645381 5.58174482190232e-05 0.000167022315369332 4.97091466799739e-05 -3.49072992070382e-06 -0.000120206375791312 5.23398700221868e-05 -0.000132185006727934 -1.85315926896911e-05 0.000103190467327109 0.000125331986964449 7.92099427124515e-05
"138" 0.000371894527336072 0.000171995172981305 0.000502711702692666 0.00017150990167084 0.000420885881006417 5.65262599557135e-05 0.000169840957490759 5.04058263364172e-05 -6.57934911935844e-06 -0.000120376110523525 5.26390151243401e-05 -0.000133675978669681 -2.08833410706711e-05 0.000101216815334483 0.000124576639926321 7.38262819843078e-05
"139" 0.000368888218987664 0.000174536830602301 0.000511534828987054 0.000173483657649618 0.000423435228751876 5.70786721305285e-05 0.000172235283741857 5.11400806450963e-05 -1.01571485530039e-05 -0.000120987060434768 5.26097055344127e-05 -0.000135480341762062 -2.37317669849785e-05 9.85650828637016e-05 0.00012309605731721 6.75411034672989e-05
"140" 0.000365128877099492 0.000176665668842561 0.000519816265239603 0.000174892070638823 0.000425286388040324 5.74393820306661e-05 0.0001741971648756 5.19099675239271e-05 -1.42084099090985e-05 -0.000122049986799738 5.22396149884041e-05 -0.000137595465452314 -2.70786291730221e-05 9.52480878475196e-05 0.000120884888668978 6.03874965257278e-05
"141" 0.000360637713927225 0.000178383335962086 0.00052748504268573 0.000175710097003126 0.000426440329853887 5.75842616093123e-05 0.000175720787782373 5.27105338259731e-05 -1.87212488754386e-05 -0.000123575104196161 5.15145328469038e-05 -0.000140024524104572 -3.09134601851513e-05 9.12716145562545e-05 0.000117946480244635 5.2413954942382e-05
"142" 0.000355434930055536 0.000179679022097407 0.000534465716589487 0.000175908489877656 0.000426879272150985 5.7473789597339e-05 0.000176792533306516 5.35386963146783e-05 -2.36759455370205e-05 -0.000125566307755385 5.04261888022337e-05 -0.000142763651191427 -3.52376254159963e-05 8.66569914039313e-05 0.000114282929511163 4.36671684406711e-05
"143" 0.000349553921347977 0.00018056111418127 0.000540699325123569 0.000175473800128649 0.000426604429675598 5.70828638597482e-05 0.000177422592173453 5.43902899596492e-05 -2.90466307927335e-05 -0.000128024454745209 4.89774256242328e-05 -0.000145806856326955 -4.00282578544279e-05 8.14255779011409e-05 0.000109913056359552 3.42094820889749e-05
"144" 0.000343025590931158 0.000181026325067287 0.000546120900113444 0.000174384233025673 0.000425607482513818 5.63756449320463e-05 0.000177599845182044 5.52549217130183e-05 -3.48190425706294e-05 -0.000130947818847723 4.71553068611313e-05 -0.000149150567483725 -4.52786375495841e-05 7.55989072407341e-05 0.000104846037173 2.41006798576719e-05
"145" 0.000335898051076013 0.000181084171078196 0.000550679098443099 0.000172636585181099 0.000423897796573384 5.53311597757785e-05 0.0001773367725671 5.61270922867119e-05 -4.09654563484656e-05 -0.000134330435421783 4.49665784270779e-05 -0.000152785718946405 -5.09639668900407e-05 6.92032545440055e-05 9.91082709967816e-05 1.34085418918043e-05
"146" 0.000328212826134192 0.000180738505761242 0.000554325590559235 0.000170223205224531 0.00042147273009114 5.39169546654966e-05 0.000176639614943305 5.70052121050062e-05 -4.74453364151345e-05 -0.000138156536652034 4.24163175909307e-05 -0.000156698273185252 -5.70530757913235e-05 6.22845645024812e-05 9.27321662321902e-05 2.20935515223644e-06
"147" 0.000320022166271524 0.000180002461162291 0.000557015495769894 0.000167146913706909 0.000418348223339637 5.21151089024575e-05 0.00017552063357999 5.78781741413032e-05 -5.42334467141829e-05 -0.000142414653619932 3.95069091108526e-05 -0.000160874858054315 -6.35235575548852e-05 5.48759098759123e-05 8.57499441386103e-05 -9.4206878096695e-06
"148" 0.000311378836283117 0.000178887807660448 0.000558714123006513 0.000163408833159215 0.000414530246263611 4.98990331750337e-05 0.000173991721243717 5.87431147255967e-05 -6.12963819141534e-05 -0.000147087499889677 3.62513255852837e-05 -0.000165301539292983 -7.03413469783186e-05 4.70209045741208e-05 7.82023027870196e-05 -2.14012305765033e-05
"149" 0.000302345526457588 0.000177407742447191 0.000559394357591046 0.000159023555990563 0.000410040504311202 4.72527676153177e-05 0.00017207506366165 5.95926856516501e-05 -6.85930769784989e-05 -0.00015214467411109 3.2663091131376e-05 -0.00016995568778684 -7.74564467006745e-05 3.87687736924988e-05 7.01346437910678e-05 -3.36440008387626e-05
"150" 0.000292985095818104 0.00017558248552299 0.000559037178724243 0.000154001901278244 0.000404901157203931 4.41656398676453e-05 0.000169794924623318 6.04226163828186e-05 -7.60862427840653e-05 -0.000157564339507861 2.8757005415433e-05 -0.000174818908355735 -8.48402686888467e-05 3.01665944414702e-05 6.15998592661586e-05 -4.60648685202692e-05
"151" 0.000283365727622954 0.00017342893046945 0.000557627501030488 0.000148366259619097 0.000399140069288689 4.06265170241495e-05 0.000167182977280752 6.12341700170275e-05 -8.37256670535346e-05 -0.000163309724205604 2.45576900478548e-05 -0.000179860484419057 -9.24324761135118e-05 2.12791530906204e-05 5.26544338947997e-05 -5.85717677064217e-05
"152" 0.000273554298140534 0.000170970376243958 0.000555163281360028 0.000142143527022922 0.000392789082300295 3.66315914057915e-05 0.000164272662952131 6.20275239525514e-05 -9.14665006669116e-05 -0.000169346547627848 2.00908983022552e-05 -0.000185050551263113 -0.000100180409874676 1.21673041439191e-05 4.33672206213523e-05 -7.10699683662608e-05
"153" 0.000263627501380373 0.000168227058259147 0.000551649118759827 0.000135355982050925 0.000385890377817038 3.21806942033278e-05 0.000161096905373849 6.28040496489743e-05 -9.92572267672964e-05 -0.000175631665468507 1.53857736463897e-05 -0.000190357971710071 -0.000108032395227457 2.89498629792564e-06 3.38006478782702e-05 -8.34699251852059e-05
"154" 0.000253654160956397 0.000165232511829757 0.000547099211146115 0.000128042398600262 0.000378481782646908 2.72813192927406e-05 0.000157704402355401 6.35615142668843e-05 -0.000107059883400469 -0.000182127381705316 1.04644887231357e-05 -0.000195752358917468 -0.000115929558796222 -6.48179255163256e-06 2.40246526838733e-05 -9.5678594717211e-05
"155" 0.000243712456229199 0.000162009808931327 0.000541535591826979 0.000120238262092409 0.000370614941174253 2.19418373413206e-05 0.00015413556749299 6.43098917903327e-05 -0.000114822476955179 -0.000188787739080242 5.37068214990148e-06 -0.000201196004535362 -0.000123810396948128 -1.58866212650029e-05 1.41140381811142e-05 -0.000107606128125483
"156" 0.000233881356718446 0.000158593335998495 0.000534983262451364 0.000111986882979232 0.000362345631924475 1.61837828275098e-05 0.000150446614015718 6.50533172530472e-05 -0.000122486937714609 -0.000195559374030353 1.3579213223664e-07 -0.000206648920248183 -0.000131608033020009 -2.52520872625111e-05 4.15271195098357e-06 -0.000119157567067296
"157" 0.000224229577361753 0.000155007181121556 0.000527484877124226 0.000103326795392502 0.000353728937741162 1.00276336052408e-05 0.000146686805682598 6.58036295165415e-05 -0.000130001540001464 -0.000202393649113359 -5.19489672023307e-06 -0.000212064024910049 -0.000139253404271545 -3.44980558882988e-05 -5.78185718777558e-06 -0.000130245479391157
"158" 0.000214838271384373 0.000151290629116558 0.000519085889252756 9.43091054793215e-05 0.000344835553942616 3.50090334588085e-06 0.00014291623577406 6.65722506461961e-05 -0.000137314856030148 -0.00020923561985142 -1.05824473696707e-05 -0.000217403508492042 -0.00014668231900034 -4.35602015025244e-05 -1.56041113457902e-05 -0.000140780872705933
"159" 0.000205779319998493 0.000147472121303999 0.000509836674147351 8.49847614457435e-05 0.000335728615874651 -3.36003724841876e-06 0.000139195681704524 6.73715940301943e-05 -0.00014437159869812 -0.000216031398833169 -1.59781986133743e-05 -0.000222617022762459 -0.000153821733412023 -5.23566806272767e-05 -2.5230130357845e-05 -0.000150683283119368
"160" 0.000197121491312148 0.000143594201484382 0.000499799422564987 7.54048983460632e-05 0.000326481451152242 -1.05177750942849e-05 0.00013558577190813 6.82159186300103e-05 -0.000151127868367679 -0.000222729111171187 -2.13428845774076e-05 -0.000227664117812097 -0.000160613454498761 -6.08269505887002e-05 -3.45784191958067e-05 -0.000159875735974891
"161" 0.00018893950505148 0.00013968408806173 0.000489041049490733 6.56219961048365e-05 0.000317173028382384 -1.79256151242929e-05 0.000132148878311375 6.91232861763356e-05 -0.000157526022733124 -0.000229267367452261 -2.66268464260971e-05 -0.000232491649239466 -0.000166976284342498 -6.88904989647419e-05 -4.35575715750582e-05 -0.00016827658127529
"162" 0.000181302408393702 0.000135785876205762 0.000477637633331328 5.56968433791542e-05 0.000307886156771834 -2.5529898140433e-05 0.000128959071806473 7.0118589804308e-05 -0.000163515022439301 -0.000235590935381203 -3.17745296151726e-05 -0.000237053220417523 -0.000172849915063144 -7.6475179588157e-05 -5.20837080071584e-05 -0.000175815907694115
"163" 0.000174264372142509 0.00013193002154598 0.000465662983167121 4.56872302168811e-05 0.000298700001972299 -3.32788366258363e-05 0.000126076577638851 7.1211001481851e-05 -0.000169052529134045 -0.000241645794585267 -3.67474350048111e-05 -0.000241301082434086 -0.000178168429171602 -8.35220783104464e-05 -6.0077330531227e-05 -0.000182432962613399
"164" 0.000167892127201772 0.000128157045499066 0.000453205600502799 3.56476077542155e-05 0.00028970187609034 -4.11130494485082e-05 0.000123570078753134 7.24293889780934e-05 -0.000174087307926775 -0.000247374516552759 -4.14900342019396e-05 -0.000245183317713323 -0.00018286724423025 -8.99557604920447e-05 -6.7451963336035e-05 -0.000188065284551222
"165" 0.000162236916530549 0.000124497455424166 0.000440349424703397 2.56396199285049e-05 0.000280982429279658 -4.89662238923077e-05 0.000121505788770162 7.37943606904254e-05 -0.000178575144177227 -0.000252724711895543 -4.59524212280404e-05 -0.000248656800014402 -0.000186884370339132 -9.57192709191597e-05 -7.41322961771933e-05 -0.000192663302263579
"166" 0.000157351234305147 0.000120995114129487 0.000427186304823908 1.57246119080623e-05 0.000272626253505152 -5.67693494323631e-05 0.000119951901854158 7.53267628309356e-05 -0.000182485078095844 -0.000257645007779504 -5.00939938499265e-05 -0.000251674967920883 -0.000190171748503524 -0.000100761160917471 -8.00449142749411e-05 -0.000196177935499824
"167" 0.000153271711966632 0.000117680525972762 0.000413812177693892 5.95847974746138e-06 0.000264721413847879 -6.44556735287399e-05 0.000118966022154309 7.70488035128914e-05 -0.000185775324058434 -0.000262089555920193 -5.38633468771099e-05 -0.000254196575896452 -0.000192672448869538 -0.000105022904395153 -8.51204190425561e-05 -0.000198577358896966
"168" 0.000150045831224583 0.000114584327276045 0.000400324686577644 -3.59725527461125e-06 0.000257363586108882 -7.19484731740969e-05 0.00011861908785477 7.89822026733117e-05 -0.000188405905260844 -0.000266004065067245 -5.72151005861714e-05 -0.000256174794392118 -0.000194336695468115 -0.000108456971246545 -8.92857967148505e-05 -0.000199822576346993
"169" 0.000147703746670624 0.000111743134377456 0.000386819394356554 -1.28818615331853e-05 0.000250640865662082 -7.91725985402997e-05 0.000118964583442527 8.11531426083699e-05 -0.000190353210195239 -0.000269349508699107 -6.01060001684517e-05 -0.000257570736776931 -0.000195128598206927 -0.000111018263368799 -9.24872232331916e-05 -0.000199891601960108
"170" 0.000146264821219754 0.00010917899599854 0.000373391496053195 -2.18474019178497e-05 0.000244634421858296 -8.60536764763418e-05 0.00012005536704895 8.35785171227953e-05 -0.000191584525509172 -0.000272084148374026 -6.24961400701808e-05 -0.000258350416813387 -0.000195007272794452 -0.00011267164111621 -9.4666554863349e-05 -0.000198773441372632
"171" 0.00014575306177802 0.000106924639754292 0.000360141203216339 -3.04320265003144e-05 0.000239434478163099 -9.25150400721969e-05 0.000121946938174787 8.62774326454813e-05 -0.000192079169231947 -0.000274172109608634 -6.4348136223871e-05 -0.000258478446377636 -0.000193944417449502 -0.00011338579562329 -9.57761262555236e-05 -0.000196457457879106
"172" 0.000146175055369062 0.000105005105806134 0.00034716581678055 -3.85886439974945e-05 0.00023511681601977 -9.84804078425521e-05 0.000124676354361497 8.92627317307319e-05 -0.000191832540647536 -0.00027558858565367 -6.56319888246824e-05 -0.000257935084355235 -0.000191926510497977 -0.000113147734589334 -9.57833883331823e-05 -0.000192951027629616
"173" 0.000147538140569053 0.000103437686755647 0.000334556769641417 -4.62624901917382e-05 0.000231763882449685 -0.000103876061767741 0.0001282918786022 9.25567388362788e-05 -0.000190815845863428 -0.000276301499593197 -6.63122079806827e-05 -0.000256689784367225 -0.000188926103314019 -0.00011192962304482 -9.46510480796693e-05 -0.000188259240562294
"174" 0.000149841814366676 0.000102248963776604 0.000322414070259213 -5.34080467980502e-05 0.000229446943456021 -0.000108626172761894 0.000132826600157413 9.61675210494427e-05 -0.000189027903100181 -0.000276288363377111 -6.63642872634456e-05 -0.000254725001087986 -0.00018494371883658 -0.000109724440638336 -9.23505415594915e-05 -0.00018240147418414
"175" 0.000153075079119294 0.000101445629318659 0.000310817899831345 -5.99808584723702e-05 0.000228233678366783 -0.000112663118203979 0.000138305067342255 0.000100105863309513 -0.000186457938328248 -0.00027553572749011 -6.57635632563055e-05 -0.000252024713413605 -0.000179974048120425 -0.000106528466072017 -8.88694032603919e-05 -0.000175403118631652
"176" 0.000157215597393248 0.000101043903007823 0.00029985243805654 -6.5942303356838e-05 0.000228186278460869 -0.000115920155961687 0.000144746899788033 0.000104377438249649 -0.000183116491382682 -0.000274033138213929 -6.44965738306749e-05 -0.000248587930323607 -0.00017402985580228 -0.000102349004212819 -8.42017809307939e-05 -0.000167303709788902
"177" 0.00016224292968526 0.000101050605476564 0.000289602533778024 -7.12539170057668e-05 0.000229356817665694 -0.000118335794599027 0.000152164658199531 0.000108977257486549 -0.000179015303400789 -0.000271779570911161 -6.25532936523309e-05 -0.000244414134056054 -0.000167129641530034 -9.72087764668574e-05 -7.83542881563529e-05 -0.000158147083076517
"178" 0.000168121338513062 0.000101465841467563 0.000280140107503009 -7.58850095417476e-05 0.000231792954858011 -0.000119852833514803 0.000160566237355411 0.000113912669774036 -0.000174154275270905 -0.000268771842099155 -5.99217323957696e-05 -0.000239502551256989 -0.000159294898550585 -9.11174504985207e-05 -7.13317488647383e-05 -0.000147984471750247
"179" 0.000174816785649474 0.000102290195698688 0.00027152873591486 -7.98087099493587e-05 0.000235531911276951 -0.000120421916246993 0.000169942886951831 0.000119170253059163 -0.000168555334257225 -0.000265019516572568 -5.66062336340667e-05 -0.000233868473990986 -0.000150557309863766 -8.4107999267934e-05 -6.31609528565653e-05 -0.000136875441744661
"180" 0.000182283355667174 0.000103520659983901 0.000263839535760884 -8.29972819338966e-05 0.000240611193015249 -0.000119995979139963 0.000180289340778559 0.000124747153213021 -0.000162238090818191 -0.000260534194335817 -5.2603409055141e-05 -0.000227526440648934 -0.000140958425221552 -7.62132421818728e-05 -5.38667574462619e-05 -0.000124886356617458
"181" 0.000190463026802913 0.000105141719456403 0.000257115591357067 -8.54395903992637e-05 0.000247038703711872 -0.000118543333304203 0.000191574721522944 0.000130617840492438 -0.000155239049126442 -0.000255344283516296 -4.79320106538192e-05 -0.000220510440059918 -0.000130554993847078 -6.74861145332423e-05 -4.34974815033168e-05 -0.000112099045525075
"182" 0.000199302995750598 0.000107140610616456 0.00025140997588422 -8.71185474239263e-05 0.000254833606091935 -0.000116034271187705 0.000203777852575376 0.000136771956959456 -0.000147580934044212 -0.000249469591833183 -4.26029655882057e-05 -0.000212844106865387 -0.000119398522485668 -5.79700384098555e-05 -3.2098773437258e-05 -9.85910540293279e-05
"183" 0.000208736916458339 0.000109496770049549 0.000246757673462132 -8.8028392235511e-05 0.000263994548282761 -0.000112448897337946 0.000216858455964468 0.000143180044682284 -0.000139307067314945 -0.000242944046479595 -3.6640749785713e-05 -0.000204573180217835 -0.000107554884284666 -4.7727928524158e-05 -1.97333338225304e-05 -8.44551301305314e-05
"184" 0.000218695481851564 0.000112185875772766 0.000243192984552557 -8.81663679122877e-05 0.000274511454924335 -0.000107776094351664 0.000230765787372996 0.000149811465974565 -0.000130459036079342 -0.000235810428762539 -3.00717582635042e-05 -0.000195740496719119 -9.51000778055959e-05 -3.6825430315311e-05 -6.47312004842179e-06 -6.97848166314579e-05
"185" 0.000229106147902106 0.000115178817262953 0.000240734286160087 -8.75386687244513e-05 0.000286357539670625 -0.000102019796408564 0.000245444891478966 0.000156635416780092 -0.000121085345802372 -0.000228109330198801 -2.29321285627715e-05 -0.000186403433954865 -8.21129611188572e-05 -2.53349198537546e-05 7.60621830606391e-06 -5.46833218911725e-05
"186" 0.000239889652549574 0.000118443215207231 0.000239393060055621 -8.61549561084831e-05 0.000299505388730076 -9.51869137665953e-05 0.000260832685036077 0.000163610485656223 -0.000111234334110944 -0.000219896130212982 -1.52577281171091e-05 -0.00017661940533506 -6.86802284068794e-05 -1.3333607236026e-05 2.24152781500383e-05 -3.9256974092604e-05
"187" 0.000250962192163383 0.000121931675391205 0.000239172969420466 -8.40284943065394e-05 0.000313909122207945 -8.73016068659045e-05 0.000276855699415371 0.000170700223852409 -0.000100961275449206 -0.000211223589610403 -7.09544123716781e-06 -0.000166452515036086 -5.48894488313249e-05 -9.02246299087599e-07 3.78637446704196e-05 -2.36141605841668e-05
"188" 0.000262236107420301 0.000125605991545106 0.000240063975128016 -8.1189639490187e-05 0.00032950763051096 -7.83954821271977e-05 0.000293422742732566 0.000177851005596512 -9.03362127821469e-05 -0.000202160644842447 1.49813513603986e-06 -0.000155984237178882 -4.08542798684001e-05 1.18589694120561e-05 5.38333824342294e-05 -7.87887388822024e-06
"189" 0.000273626647259594 0.000129419357419249 0.000242053158207943 -7.76607188026992e-05 0.000346235716922118 -6.85106214485885e-05 0.000310455435870426 0.000185016466838146 -7.94118425803338e-05 -0.000192766358775149 1.04772963805428e-05 -0.000145282461961836 -2.66626729506786e-05 2.4866777141478e-05 7.02227961849937e-05 7.83932691023189e-06
"190" 0.00028504157103802 0.000133322458644764 0.000245118060033481 -7.34765785207093e-05 0.000364016576699208 -5.76992033510548e-05 0.000327854950205801 0.000192138239075409 -6.82740536918396e-05 -0.000183119890216807 1.97703621523588e-05 -0.00013444303813186 -1.24333784149724e-05 3.80096391859862e-05 8.69068161862992e-05 2.3414850133032e-05
"191" 0.000296388518377299 0.000137252141008197 0.000249221792276431 -6.86795363641716e-05 0.000382754476112971 -4.60330230640079e-05 0.00034551547580326 0.00019916623191879 -5.69703607832463e-05 -0.000173289039723982 2.9319165377021e-05 -0.000123543243713519 1.73247378966076e-06 5.12011766675081e-05 0.00010376787239292 3.87259001941994e-05
"192" 0.000307578703715327 0.000141159686194001 0.000254318888123792 -6.33145792738571e-05 0.000402352739411158 -3.35809644319167e-05 0.000363330575600986 0.000206038698824149 -4.55965225406897e-05 -0.000163361610721286 3.90508089969849e-05 -0.00011268624822677 1.5714839981326e-05 6.43244340243843e-05 0.000120665824609307 5.3650434309355e-05
"193" 0.000318515204006992 0.000144977386900953 0.00026036000203407 -5.74330673539002e-05 0.000422693282248558 -2.04331545046966e-05 0.000381183131078123 0.00021269252408057 -3.42283466121214e-05 -0.000153419491987511 4.88889445707875e-05 -0.000101965625279285 2.93934986478297e-05 7.72719248350813e-05 0.000137471807094827 6.80605209601174e-05
"194" 0.000329113869390199 0.000148643457943822 0.000267283485652651 -5.10927213204793e-05 0.000443657054623305 -6.68732651489813e-06 0.000398955395745176 0.000219071671006429 -2.29321184286682e-05 -0.000143540103237134 5.87656929561381e-05 -9.14745614826202e-05 4.26648370027928e-05 8.9947288491158e-05 0.000154050276100249 8.18443256646034e-05
"195" 0.000339276147723937 0.000152094064925374 0.000275022058006259 -4.4354982200166e-05 0.000465110478262514 7.55100917617279e-06 0.000416524676116879 0.000225104627663337 -1.1806887048739e-05 -0.000133820052459008 6.85926068629335e-05 -8.1323083151597e-05 5.53980187192364e-05 0.000102226227583309 0.000170250847749422 9.48688671588416e-05
"196" 0.000348921672398856 0.000155264476689481 0.000283497277334438 -3.72839424500756e-05 0.00048691795232148 2.21691074743387e-05 0.000433770218146083 0.000230736033484038 -9.23928824048503e-07 -0.00012434115111345 7.82932604636007e-05 -7.16077260946256e-05 6.74928379199045e-05 0.000114010601092088 0.000185942165381851 0.000107030911065256
"197" 0.000357959004554545 0.00015808162463169 0.000292627445553244 -2.99545976952991e-05 0.000508922636656971 3.70395562289548e-05 0.00045055560046965 0.000235900661104471 9.62560457072474e-06 -0.000115196935198323 8.77789583225433e-05 -6.24340475885828e-05 7.88257779638584e-05 0.000125188250361462 0.00020097401925886 0.000118206899443618
"198" 0.000366319660648106 0.000160490007168516 0.000302326555339316 -2.24326891845558e-05 0.000530980142592972 5.20384329381363e-05 0.000466767227812441 0.000240538380326691 1.97630137817579e-05 -0.000106470100594216 9.69741668044736e-05 -5.39003401003176e-05 8.92980905297584e-05 0.000135656373173988 0.000215215307731822 0.000128298116968011
"199" 0.000373917065694199 0.000162411542837511 0.000312495270877587 -1.48041186391635e-05 0.000552921689255174 6.70252106192306e-05 0.000482267644364505 0.000244592914320619 2.93997406943545e-05 -9.82516071786513e-05 0.000105788769885607 -4.61064285622942e-05 9.87994302265615e-05 0.000145313499453931 0.000228519351230152 0.000137200418447885
"200" 0.000380689693531643 0.000163790905560778 0.000323042350279052 -7.13631600324162e-06 0.000574591753138755 8.18652792032314e-05 0.000496946242948869 0.000248007128924629 3.84525188813313e-05 -9.06245563378637e-05 0.000114143620381333 -3.91522113986175e-05 0.000107236160805047 0.000154060419065241 0.00024076187265283 0.000144821611523214
"201" 0.000386564196521991 0.000164563116100328 0.000333857605456361 4.8129664026497e-07 0.00059581608317606 9.64102773441549e-05 0.000510667425827992 0.00025072770904684 4.68462414823366e-05 -8.36725406050789e-05 0.000121957740568121 -3.31229597925987e-05 0.000114513442378436 0.000161808258126705 0.00025180442342102 0.000151075894825834
"202" 0.000391489472113552 0.000164668826727436 0.000344839983997995 7.97125936169389e-06 0.000616426218231956 0.000110519816430293 0.000523321371215949 0.000252705947271287 5.44897477660907e-05 -7.74756491478125e-05 0.000129147927177369 -2.81126761887766e-05 0.000120548954302559 0.000168460849112744 0.000261531323456768 0.000155886730239926
"203" 0.000395404568228325 0.00016405209509677 0.000355876577481975 1.52517188875228e-05 0.000636254853264262 0.000124042604214721 0.000534790080245313 0.000253900427803867 6.13126838117141e-05 -7.21083946914125e-05 0.000135639239001613 -2.4202063331742e-05 0.000125264358903494 0.000173943609559221 0.000269825030622549 0.000159187429582286
"204" 0.000398271442086604 0.000162659136218489 0.000366863993626818 2.22387763361385e-05 0.000655134175740066 0.000136839682526445 0.000544973420175602 0.00025427390514181 6.72483122307943e-05 -6.76344908728596e-05 0.000141363995562424 -2.14585644452829e-05 0.000128598184411971 0.000178185510195828 0.00027658255649116 0.000160926491462725
"205" 0.000400048077639394 0.000160444639827305 0.000377687328967623 2.88570236494732e-05 0.000672897525354373 0.000148768675774138 0.000553770922491805 0.000253791240150178 7.22242661141576e-05 -6.41214967879123e-05 0.000146252339968593 -1.9948516426026e-05 0.000130497711104064 0.000181123922636142 0.000281711264271438 0.000161057498459237
"206" 0.000400710966749533 0.00015736666628601 0.000388244069191418 3.50285011731717e-05 0.000689383008031385 0.000159692838338401 0.000561092559716549 0.00025242818291744 7.61711526857289e-05 -6.16251815749408e-05 0.000150238124734353 -1.97347536019102e-05 0.000130910179295682 0.00018269341050576 0.000285124565900014 0.000159548715313115
"207" 0.000400232901721419 0.000153393721409409 0.000398425648993238 4.06785495768466e-05 0.000704435577726651 0.000169480770231316 0.000566853600289703 0.000250169080547632 7.90420160273633e-05 -6.01918026937214e-05 0.000153268613157412 -2.08557810902089e-05 0.00012981259908896 0.000182861836729693 0.000286755927716874 0.000156382302490066
"208" 0.00039859864185308 0.000148487897577485 0.000408123798525152 4.57319928574641e-05 0.000717906548662927 0.000178006464966319 0.000570983499300834 0.00024700027107285 8.07807823331471e-05 -5.9865845429437e-05 0.000155296401013469 -2.33520056291281e-05 0.000127181883173898 0.000181585213696056 0.000286542602646721 0.000151549132704166
"209" 0.000395805389601258 0.000142633762923374 0.000417245882497244 5.0127624254343e-05 0.000729658587927139 0.000185162653879547 0.000573422236442979 0.000242915414037966 8.13450832804124e-05 -6.0674946221927e-05 0.000156273768483869 -2.72438277661601e-05 0.000123009554083606 0.000178842137186821 0.000284447147267095 0.000145062400367132
"210" 0.000391853453609768 0.000135814763437235 0.000425688128107432 5.37993867121924e-05 0.000739557846616844 0.000190837501183409 0.000574116937827839 0.000237920378463722 8.06992891939583e-05 -6.26465413885125e-05 0.000156170812665016 -3.2545002508556e-05 0.000117298940821694 0.000174617577334052 0.000280438512775891 0.000136934191090172
"211" 0.00038674899888338 0.000128019896952765 0.000433359016610038 5.6692237938784e-05 0.000747487127711844 0.000194942147008713 0.000573029524914958 0.000232027004413278 7.88191237205338e-05 -6.57901975248299e-05 0.000154960264484297 -3.9254592896984e-05 0.000110071510369021 0.000168913347811395 0.000274506179608547 0.000127202749323401
"212" 0.000380514905286848 0.000119253074303595 0.000440182448422932 5.87592481129037e-05 0.000753339511935857 0.000197399835480077 0.000570135245697081 0.000225251831055781 7.56744384249005e-05 -7.01129575066969e-05 0.000152619504055543 -4.73616548115027e-05 0.000101354627466735 0.000161735264573045 0.000266651787875302 0.00011591341023342
"213" 0.000373172436851207 0.000109522283464864 0.000446069757871252 5.99554553916507e-05 0.000757026274943226 0.00019814477734031 0.000565419260805038 0.000217625199957356 7.12646410692894e-05 -7.5605193066934e-05 0.000149146247538421 -5.68393818267535e-05 9.11934986101521e-05 0.00015310396490668 0.000256894332786574 0.000103123803524222
"214" 0.000364754218474096 9.88463578123206e-05 0.000450958569139783 6.02468218207e-05 0.000758468896356729 0.000197126973046331 0.000558881761340276 0.000209181573921699 6.5591638564881e-05 -8.22471851746488e-05 0.000144538242954006 -6.7644278354655e-05 7.96455427874229e-05 0.000143061662007774 0.000245272235038265 8.89101156398298e-05
"215" 0.000355290725927502 8.72427396813708e-05 0.000454776323705919 5.96015573393269e-05 0.000757601138921758 0.000194310407554353 0.000550527367527002 0.000199957068743403 5.86523865021336e-05 -9.00234445719887e-05 0.000138802961238667 -7.97363119508667e-05 6.67718564599942e-05 0.000131636039612837 0.000231824871966238 7.33447248171881e-05
"216" 0.000344838813182719 7.47520459413116e-05 0.000457475289790479 5.80070527620638e-05 0.000754383840131613 0.000189681067502622 0.000540386702778904 0.000190004399923162 5.04731688945242e-05 -9.88838794152758e-05 0.000131961104277327 -9.30417706517969e-05 5.26562363403487e-05 0.000118893224659462 0.000216631846583102 5.65309796383412e-05
"217" 0.000333437337497247 6.14154933106581e-05 0.000459012202563126 5.54477653016792e-05 0.000748784892808354 0.000183237753937919 0.000528491996703929 0.000179381492046959 4.10763450188707e-05 -0.00010878920624692 0.000124038818554427 -0.000107491108603703 3.73834715011615e-05 0.00010489331042247 0.000199764506415798 3.85695423022937e-05
"218" 0.000321148664987274 4.7276822329008e-05 0.000459346997921294 5.1926625955898e-05 0.000740797541878477 0.000174999027353761 0.000514894629061521 0.00016814541944083 3.05049895960882e-05 -0.00011968002631027 0.000115077966165487 -0.000122999221923291 2.10553814034449e-05 8.97143954679274e-05 0.000181322523633385 1.95761960107612e-05
"219" 0.000308025101701905 3.23926641093495e-05 0.000458445487216376 4.74412801084233e-05 0.000730421089298456 0.000164991837861767 0.00049964625220492 0.000156365691722293 1.88018598417465e-05 -0.000131493039186989 0.000105119968840198 -0.000139464628219914 3.77594373882449e-06 7.34388451666997e-05 0.000161407149126493 -3.34434745536441e-07
"220" 0.000294137149813494 1.68325147000714e-05 0.00045630438068013 4.20165429830036e-05 0.000717687351507988 0.000153272634521876 0.000482825412568745 0.000144112427918157 6.01674694355083e-06 -0.00014415375603846 9.42173934003125e-05 -0.000156784440261482 -1.43395602701538e-05 5.61563105532878e-05 0.000140142411949648 -2.10257056229206e-05
"221" 0.000279543301744703 6.56716924377707e-07 0.000452906164635062 3.56697827775295e-05 0.000702636183182965 0.000139901346980591 0.000464504061631805 0.000131460418961986 -7.7733505913422e-06 -0.00015758094994362 8.24362755215587e-05 -0.000174842887962945 -3.31712549406483e-05 3.79723396344821e-05 0.000117656559845743 -4.23673622283194e-05
"222" 0.000264320754524442 -1.60510121673923e-05 0.000448256357464796 2.84362577300435e-05 0.00068532475718964 0.000124965149327177 0.000444778123102838 0.000118492660655199 -2.25103157491245e-05 -0.000171683145630629 6.98427121455172e-05 -0.000193519296161396 -5.25933907350368e-05 1.89886671323646e-05 9.40922150130349e-05 -6.42199001259166e-05
"223" 0.000248536975487184 -3.32131928582268e-05 0.000442362711001874 2.03569453257846e-05 0.000665834124475644 0.000108559688790966 0.000423744083738576 0.000105286031179386 -3.81125695497986e-05 -0.000186366987881918 5.65152398867274e-05 -0.00021268154553542 -7.24735482742961e-05 -6.79023406944094e-07 6.95947124440875e-05 -8.64381007378198e-05
"224" 0.000232264707353484 -5.07434098041324e-05 0.000435255642997912 1.14799539419053e-05 0.000644259395094435 9.07963044812031e-05 0.000401511550025099 9.19315874188965e-05 -5.44901703473994e-05 -0.000201530924574576 4.25329117621622e-05 -0.000232197073127944 -9.26817900404601e-05 -2.09165279892449e-05 4.43235027382882e-05 -0.000108876758147123
"225" 0.000215580268548386 -6.85528681447457e-05 0.0004269510960958 1.85826618111278e-06 0.000620703403783682 7.17948902378169e-05 0.000378188596795162 7.85077648280739e-05 -7.1551955008922e-05 -0.000217068475572318 2.79858519494604e-05 -0.000251926543173956 -0.000113078411300637 -4.15974924054016e-05 1.84354583709339e-05 -0.000131388266819185
"226" 0.000198559847695596 -8.65453205994545e-05 0.00041749988366781 -8.43928813762442e-06 0.000595297483671038 5.16919669527541e-05 0.000353906151735285 6.51048908462212e-05 -8.91981475804252e-05 -0.000232868898834982 1.29689898117359e-05 -0.000271725398416505 -0.000133525715310035 -6.26010608505957e-05 -7.89572010787291e-06 -0.000153823051106045
"227" 0.000181272810865926 -0.000104625466010773 0.000406944553397487 -1.93468732989179e-05 0.000568181187400794 3.06353740928041e-05 0.000328781211443527 5.18080221255168e-05 -0.00010732973949217 -0.000248819186657928 -2.42477846057794e-06 -0.000291452920140079 -0.0001538941664143 -8.37988154497618e-05 -3.45068290625063e-05 -0.000176037376592183
"228" 0.000163800114205614 -0.000122699357639394 0.00039534438576375 -3.07871353401633e-05 0.000539504072716875 8.77735556225193e-06 0.000302951973512608 3.87027158919238e-05 -0.000125831145948038 -0.000264804183194613 -1.80944192024208e-05 -0.000310961875340387 -0.000174039233385564 -0.00010506078178066 -6.12208155615641e-05 -0.000197883996761348
"229" 0.000146214294203436 -0.000140666230519424 0.000382759353999314 -4.26807568639267e-05 0.000509435331332852 -1.37201060577738e-05 0.000276548231221329 2.58683616522009e-05 -0.000144601492892709 -0.000280708190762305 -3.39353363562762e-05 -0.000330109971847157 -0.000193832768851234 -0.000126261407953088 -8.78715998110116e-05 -0.000219222045395347
"230" 0.000128586057163401 -0.000158424985708228 0.000369260588090318 -5.49387546245472e-05 0.000478150438173921 -3.66902709279402e-05 0.000249715918816728 1.33878684980584e-05 -0.00016352302168155 -0.000296413805756913 -4.98468828684839e-05 -0.000348755198827884 -0.000213147125137254 -0.000147272291668525 -0.000114287498766421 -0.000239911897970083
"231" 0.00011098732670854 -0.000175882147951471 0.000354926308295293 -6.74781351843589e-05 0.000445833335247581 -5.99610662937965e-05 0.000222584486180032 1.33657545638243e-06 -0.000182476495367089 -0.000311805896535821 -6.57207697907832e-05 -0.000366755379306 -0.000231851155861401 -0.000167965121931889 -0.000140298773335901 -0.00025982435627532
"232" 9.34841018185539e-05 -0.000192947686025222 0.000339836804674651 -8.02046446590261e-05 0.000412678016288181 -8.33621979123933e-05 0.000195298114127772 -1.02116831962248e-05 -0.000201340391822402 -0.000326767932382078 -8.14512937269828e-05 -0.000383974320327973 -0.000249822725535633 -0.000188214082710429 -0.000165738542384553 -0.000278826383830201
"233" 7.61485542988753e-05 -0.000209513179962615 0.000324087363599597 -9.30196042669326e-05 0.000378892400899479 -0.000106712259992751 0.000168001417657012 -2.11892573740372e-05 -0.000220013766003907 -0.000341192462721686 -9.6938860866496e-05 -0.00040028651924267 -0.000266951751308193 -0.000207903788076745 -0.000190453184363894 -0.000296802595818166
"234" 5.90360747170771e-05 -0.000225504506272481 0.000307760773067772 -0.000105836579669421 0.000344679467094138 -0.000129843027467042 0.0001408321061678 -3.15319839905154e-05 -0.000238363596465581 -0.000354970234669088 -0.00011207595597898 -0.000415560853110502 -0.000283125720853824 -0.000226913293954717 -0.000214281881752164 -0.000313639001832318
"235" 4.22164873169186e-05 -0.000240826436689936 0.000290962353733447 -0.000118550135360022 0.00031025307605565 -0.000152577575870563 0.000113931410412909 -4.11820221203283e-05 -0.000256283662810079 -0.000367996627146781 -0.000126766615267314 -0.000429684161730535 -0.000298242727110235 -0.000245128181905793 -0.000237081141046209 -0.000329229611027496
"236" 2.57431932546213e-05 -0.000255401228028546 0.000273787519969488 -0.000131070823378951 0.00027582649931211 -0.000174752007993122 8.74345940114615e-05 -5.00874879793365e-05 -0.000273650903957063 -0.000380175502474516 -0.000140910373121008 -0.000442544844370157 -0.000312206754384457 -0.000262440830692027 -0.000258707828736339 -0.00034347915978162
"237" 9.66974377059281e-06 -0.000269155317222485 0.000256343726261381 -0.000143299467540719 0.000241618005056875 -0.000196200704832946 6.14782652695319e-05 -5.82022320913437e-05 -0.0002903574100718 -0.00039141087063289 -0.000154416361089864 -0.000454038092751177 -0.000324927914215485 -0.000278745360684544 -0.0002790324055107 -0.000356299515128303
"238" -5.95094544289181e-06 -0.000282021221600696 0.00023872918525384 -0.000155150870903826 0.00020784096052128 -0.000216770914959353 3.61879492074828e-05 -6.54881293538364e-05 -0.000306290760603635 -0.000401619117204806 -0.000167191236987048 -0.000464073656797901 -0.00033633066367024 -0.000293947492076727 -0.000297931060681054 -0.000367614499264667
"239" -2.10709687139096e-05 -0.000293936168751793 0.000221057176853313 -0.000166529450991456 0.00017471605635474 -0.00023631235083068 1.16952499150908e-05 -7.19141499313058e-05 -0.00032133546766235 -0.000410717839301504 -0.000179149646317332 -0.000472563517846043 -0.000346337851788152 -0.000307947942372438 -0.000315287362563454 -0.000377354042492612
"240" -3.5646436391124e-05 -0.00030484460607129 0.000203431619989023 -0.000177349016842273 0.000142450832437599 -0.000254683701210106 -1.18785003930641e-05 -7.7452696499611e-05 -0.000335408401091735 -0.00041864315729945 -0.000190220321964712 -0.000479442792086549 -0.000354895016310264 -0.000320671378114414 -0.000331005795900535 -0.000385464709013086
"241" -4.96356886385293e-05 -0.000314699235225877 0.000185959106470577 -0.000187530783290715 0.000111254131800168 -0.000271761467334975 -3.44167097285253e-05 -8.20900911040261e-05 -0.000348395580967431 -0.000425325786343506 -0.000200322491442419 -0.000484643913237011 -0.00036194310042859 -0.000332029919270319 -0.000344986921788815 -0.000391896327794415
"242" -6.29982859393769e-05 -0.000323466393523653 0.000168747066033706 -0.00019699671269293 8.13302820253659e-05 -0.000287423451529468 -5.58088356800888e-05 -8.58111025836398e-05 -0.000360201382641033 -0.000430710323338235 -0.000209386879969199 -0.000488113215860216 -0.000367430988458163 -0.00034195287846279 -0.000357150118591701 -0.000396614728563124
"243" -7.57044144191903e-05 -0.000331117846822582 0.000151897852308311 -0.000205676840395029 5.28728873774078e-05 -0.000301571698814923 -7.59535219133339e-05 -8.86141171774654e-05 -0.000370745438865746 -0.00043475642565973 -0.000217359520484119 -0.000489816472420186 -0.000371334680083657 -0.000350378619461785 -0.000367433259414791 -0.000399596435841358
"244" -8.77187371307229e-05 -0.000337629673358504 0.000135517280403854 -0.000213504900699582 2.6074594546827e-05 -0.000314106721506189 -9.47442572055305e-05 -9.05027056270861e-05 -0.00037993078483318 -0.000437423098366405 -0.000224181275128043 -0.000489715764065978 -0.000373610613814642 -0.000357241649798255 -0.000375765754805198 -0.000400820769193344
"245" -9.9016892803122e-05 -0.000342986576310465 0.000119706514204679 -0.000220424254791836 1.10984670034441e-06 -0.000324956300374488 -0.0001120999134419 -9.14890405466198e-05 -0.000387699400961618 -0.000438690556148555 -0.00022981243335281 -0.00048780684083754 -0.000374258648237731 -0.000362504513066478 -0.000382114721991896 -0.000400295755221
"246" -0.000109570145515647 -0.000347194894758369 0.000104561068635952 -0.000226381976727599 -2.18510014446957e-05 -0.000334054620739108 -0.000127927749042202 -9.15861065259314e-05 -0.000393965731163798 -0.000438535298492797 -0.000234209056583936 -0.000484076722371603 -0.000373257326449556 -0.000366114464602845 -0.000386435915507283 -0.000398017850923879
"247" -0.000119359908020902 -0.000350255946627223 9.01769995238796e-05 -0.000231339063935524 -4.26539828846994e-05 -0.000341354189812466 -0.000142159272767768 -9.08182518155652e-05 -0.000398677214492784 -0.000436958397921327 -0.000237344966882617 -0.00047853704992443 -0.000370609528205914 -0.000368040989730169 -0.000388715220154278 -0.000394014189451446
"248" -0.000128366137006349 -0.000352188087622149 7.66411321158265e-05 -0.000235258112835152 -6.11487375188205e-05 -0.000346823519082123 -0.00015472577363625 -8.92181700471634e-05 -0.000401762270104403 -0.000433953781040323 -0.000239192366842774 -0.000471199869164854 -0.000366321359388515 -0.000368250142874887 -0.000388934146086398 -0.000388309259605204
"249" -0.000136569320624571 -0.000353018650960319 6.4041831499217e-05 -0.000238114571825478 -7.72101372279879e-05 -0.000350443186252368 -0.000165564041916863 -8.68131248443473e-05 -0.000403174983363452 -0.000429537263446069 -0.000239735398616551 -0.000462098691141166 -0.000360403466500346 -0.000366720732470543 -0.000387096001267836 -0.000380938816485528
"250" -0.000143959871496284 -0.000352773863656491 5.24610880285045e-05 -0.000239887891675809 -9.07189441766232e-05 -0.000352214509659085 -0.000174626114799551 -8.36489376344421e-05 -0.000402888282153811 -0.000423738054642626 -0.000238974381708433 -0.000451281977546711 -0.000352889891463113 -0.000363454604233486 -0.000383223221645991 -0.000371960625578146
"251" -0.000150524346469561 -0.000351501204491931 4.19638469552235e-05 -0.000240576370120819 -0.000101575242920096 -0.000352151656129905 -0.000181876407468809 -7.97707575296915e-05 -0.000400861172373316 -0.000416584871360583 -0.000236910980963282 -0.000438799998784095 -0.000343808896907724 -0.000358441277272392 -0.000377336514094342 -0.000361431565734737
"252" -0.000156252095268467 -0.000349247934301432 3.26300237753003e-05 -0.000240173979354744 -0.000109692693228214 -0.00035028294887735 -0.000187273212113101 -7.52212484418348e-05 -0.000397058225168552 -0.000408114544590544 -0.000233543074325207 -0.000424713797611073 -0.000333193989183327 -0.000351671761338352 -0.000369467975261672 -0.000349415647111123
"253" -0.00016113847289642 -0.000346070017540565 2.4516652853338e-05 -0.000238692230365692 -0.00011500689505862 -0.00034665475492978 -0.000190801274377205 -7.00552878336512e-05 -0.000391484407049337 -0.000398385528830347 -0.000228902126046668 -0.00040910673392766 -0.000321100494877535 -0.00034317842527061 -0.000359673230385881 -0.000335995393733035
"254" -0.000165177487891354 -0.000342035474241317 1.76768668563398e-05 -0.000236154108223729 -0.000117464513826333 -0.000341328553473342 -0.000192447992731801 -6.43284736812016e-05 -0.000384118407106712 -0.000387453822122597 -0.000223007433779771 -0.000392056915972363 -0.000307579120607958 -0.000332964828838807 -0.00034800991937817 -0.000321253727790656
"255" -0.000168365651000452 -0.000337204819075167 1.21633326527501e-05 -0.000232578371988202 -0.000117034645841981 -0.000334374659734009 -0.000192202682089805 -5.80971294435703e-05 -0.000374976956044812 -0.000375387835575734 -0.000215895593061239 -0.00037366793581824 -0.000292695902404461 -0.000321071416730044 -0.00033454655503636 -0.000305287471979445
"256" -0.000170698840161904 -0.00033165863688489 8.01606185093724e-06 -0.000228003566211268 -0.000113701787520307 -0.000325884941401193 -0.00019007964918644 -5.14206375858526e-05 -0.000364065453870325 -0.000362263608117238 -0.00020760084448033 -0.000354037552255499 -0.000276510257266743 -0.000307523308837122 -0.000319364668003579 -0.00028819306373308
"257" -0.000172182325902175 -0.000325468014390917 5.2715782377519e-06 -0.000222473819859823 -0.000107474116393877 -0.000315958798947669 -0.000186091690601797 -4.43594008575249e-05 -0.000351421603281596 -0.000348164060454553 -0.000198180175756668 -0.000333287456949307 -0.000259108144636285 -0.000292378845683369 -0.000302558081094212 -0.000270084374039114
"258" -0.000172811421753754 -0.000318721904277328 3.95069829975406e-06 -0.000216038174332688 -9.83717582511363e-05 -0.000304709066761561 -0.000180266156075321 -3.69737580062963e-05 -0.000337064615669664 -0.00033317599323362 -0.000187682810552696 -0.000311529852687022 -0.000240557701362933 -0.000275674706384605 -0.000284220146228339 -0.000251069553561333
"259" -0.000172591855542946 -0.000311501392011137 4.07639733931221e-06 -0.000208756173297642 -8.64452396148792e-05 -0.000292257647949154 -0.000172639001195967 -2.93206634985599e-05 -0.000321051662667615 -0.000317393204041587 -0.000176173851205621 -0.000288897011090962 -0.000220953042158477 -0.00025747784768144 -0.000264460940948623 -0.000231271950767227
"260" -0.000171529160227064 -0.000303888523023986 5.65788884851555e-06 -0.00020068809426725 -7.1753378884034e-05 -0.000278735534853133 -0.000163257643063003 -2.14660697698329e-05 -0.000303438407178025 -0.00030092050394302 -0.000163722667991631 -0.000265522712296011 -0.000200381732026009 -0.000237859357085342 -0.000243399946253039 -0.000210809769194837
"261" -0.000169626675157454 -0.000295974201345404 8.69431452684037e-06 -0.000191907533830187 -5.43810407129151e-05 -0.000264285804558144 -0.000152179988160388 -1.3464957967819e-05 -0.000284290912183655 -0.000283857098004718 -0.000150398373754459 -0.000241543612112844 -0.000178941628712899 -0.000216890941464608 -0.000221156898473428 -0.000189815338877933
"262" -0.000166889150088455 -0.000287839088557277 1.31843353386888e-05 -0.00018248426095661 -3.44281607057205e-05 -0.000249053508210044 -0.000139466458445071 -5.374316180717e-06 -0.000263688561833708 -0.000266308773635895 -0.000136286689476031 -0.000217102948649592 -0.000156726559556027 -0.0001946581744095 -0.000197862586400665 -0.000168412215170557
"263" -0.000163330733586587 -0.000279570756821189 1.91061107245659e-05 -0.000172501039132608 -1.2018470906993e-05 -0.000233191678062905 -0.000125199167103093 2.75102265891807e-06 -0.000241718465425439 -0.000248384783291697 -0.000121463952423973 -0.000192341043147387 -0.00013384318672466 -0.000171248424713948 -0.000173651386701936 -0.000146731921808744
"264" -0.000158960319972495 -0.000271249514521113 2.64433001340521e-05 -0.000162039154267623 1.27067154922377e-05 -0.00021685628305026 -0.000109465807982516 1.08573984943027e-05 -0.000218488672599193 -0.000230196158259205 -0.000106027485529767 -0.000167410853050198 -0.000110400682209378 -0.000146765844861762 -0.000148667273422739 -0.000124910577188261
"265" -0.000153783764852737 -0.000262951027758679 3.51611673869729e-05 -0.000151179767034932 3.95928474736389e-05 -0.000200203063746827 -9.23527894999914e-05 1.89010399664019e-05 -0.000194093920947455 -0.000211845927260111 -9.00610736033271e-05 -0.000142449427190989 -8.65001143386956e-05 -0.000121302831245358 -0.000123047593289228 -0.000103074357431148
"266" -0.000147821777370598 -0.000254749391271768 4.52254873730264e-05 -0.000140012569031022 6.84592585295947e-05 -0.000183389800899188 -7.39731785215921e-05 2.68279281823306e-05 -0.000168674038094475 -0.000193454519224883 -7.36671307087425e-05 -0.000117611774972428 -6.22660142940678e-05 -9.49879869352388e-05 -9.69520871557791e-05 -8.13576364551799e-05
"267" -0.000141086973937737 -0.000246714193168617 5.65822243022771e-05 -0.000128621582368264 9.91197102137827e-05 -0.000166572216923206 -5.44345675699661e-05 3.46020379852924e-05 -0.00014234537342907 -0.000175121590751454 -5.69412143527381e-05 -9.30350047466086e-05 -3.78030841880284e-05 -6.79273777037611e-05 -7.05230346870074e-05 -5.98867911642383e-05
"268" -0.000133595037505426 -0.000238907324143478 6.91798820000217e-05 -0.000117093889068988 0.000131367075101589 -0.000149902176739006 -3.38635950551899e-05 4.21837716185839e-05 -0.000115239656962729 -0.000156948973448535 -3.99762103110913e-05 -6.88546849367926e-05 -1.32222720988981e-05 -4.02435238218429e-05 -4.39070624718163e-05 -3.87841805019666e-05
"269" -0.000125364440220131 -0.000231379879635419 8.29580576587523e-05 -0.000105507788034612 0.000164982717828023 -0.000133525057756419 -1.23818375805236e-05 4.95357825702795e-05 -8.75170354677317e-05 -0.000139040921940156 -2.28806009025202e-05 -4.52115649322143e-05 1.13534985694529e-05 -1.20684259869764e-05 -1.7261573478132e-05 -1.81732160354772e-05
"270" -0.000116418541072854 -0.000224182281505156 9.78458231482239e-05 -9.39521781919589e-05 0.000199729218037854 -0.000117584240457305 9.86865595237907e-06 5.662949480046e-05 -5.93221233276639e-05 -0.000121496046249 -5.75259528941907e-06 -2.22339175038402e-05 3.58085306963787e-05 1.64624516323788e-05 9.2620803536381e-06 1.83089831483532e-06
"271" -0.000106777132006876 -0.000217349223117117 0.000113771867639837 -8.25002468610996e-05 0.000235369547578196 -0.000102205930131969 3.27507864759377e-05 6.34396529466005e-05 -3.08084413873429e-05 -0.000104393754462759 1.13123912827867e-05 -3.9337836555078e-08 6.00382282593095e-05 4.52204649560168e-05 3.55263093276116e-05 2.11234811179325e-05
"272" -9.64717893711555e-05 -0.000210919910986997 0.000130646103112549 -7.12298582986874e-05 0.000271648860317684 -8.7516816676582e-05 5.61065795126429e-05 6.99416870026741e-05 -2.13442680745482e-06 -8.7822261855658e-05 2.8213451339558e-05 2.12619074611128e-05 8.39273348969303e-05 7.40660783985598e-05 6.13784249565495e-05 3.9596264364632e-05
"273" -8.55285200370454e-05 -0.000204910756832493 0.000148381835737721 -6.02102000528226e-05 0.000308304880049701 -7.36250486763346e-05 7.9788189863693e-05 7.61175331795472e-05 2.65235302768995e-05 -7.18619951676212e-05 4.48513544869136e-05 4.15561256768407e-05 0.000107354107731512 0.000102848631325432 8.6678367858366e-05 5.71534946678481e-05
"274" -7.39750916059635e-05 -0.00019933451876497 0.000166890078203022 -4.95001069168796e-05 0.000345081486454908 -6.06252131374815e-05 0.000103641243581683 8.19520262081256e-05 5.50149603914775e-05 -5.6572089725916e-05 6.11384278880043e-05 6.07608457223897e-05 0.000130222493915708 0.000131438278737165 0.000111298510276506 7.37163828859524e-05
"275" -6.18507998274556e-05 -0.000194194337729542 0.000186070395152026 -3.91592021526288e-05 0.000381709085788685 -4.86055060710413e-05 0.000127500805621085 8.74376027072106e-05 8.31622522199801e-05 -4.20156429052138e-05 7.6983093869811e-05 7.87857142481038e-05 0.000152425613953542 0.000159686558427103 0.00013510457674195 8.91998812209641e-05
"276" -4.91881372701696e-05 -0.000189480809790532 0.000205817744625518 -2.923601033966e-05 0.000417920312790379 -3.76303396223286e-05 0.000151206194560671 9.25607059372026e-05 0.000110801314774285 -2.82432956900156e-05 9.22963404620847e-05 9.55607310123605e-05 0.000173860153015928 0.000187454887230201 0.000157977409787203 0.000103541049158932
"277" -3.60271411244609e-05 -0.000185185697557961 0.000226031931758068 -1.97716384487151e-05 0.000453455181485363 -2.77556273230519e-05 0.000174596664131729 9.73235519076601e-05 0.000137773492210304 -1.52926979875748e-05 0.000107000813831466 0.000111029528393535 0.000194431854692963 0.000214599948337937 0.000179804984938245 0.000116680295266106
"278" -2.24115426211223e-05 -0.000181285670801946 0.000246598751905756 -1.08020302649938e-05 0.000488051488924701 -1.90213684417773e-05 0.000197506558763431 0.000101720263884889 0.000163931559905613 -3.19045486607585e-06 0.000121024355386103 0.000125148560411402 0.000214052192560696 0.000240998690281026 0.000200489958767465 0.000128573987798104
"279" -8.38552748999381e-06 -0.000177745250573731 0.000267409489923645 -2.35371623832406e-06 0.000521456107698873 -1.14481933511298e-05 0.000219778231008614 0.000105755224834436 0.000189115342627626 8.03585527100926e-06 0.000134298620308424 0.000137878492802755 0.000232637402851712 0.000266508170949511 0.00021993191475407 0.000139183831893297
"280" 6.00223272237832e-06 -0.00017452949380217 0.000288352798304948 5.55647219755129e-06 0.000553429985493325 -5.04325679048939e-06 0.000241254423324429 0.000109429348221041 0.000213183822348615 1.83814462719886e-05 0.000146760515025728 0.000149202906821571 0.000250110215568083 0.000291006675565682 0.00023805370287384 0.000148486296114394
"281" 2.07014200964533e-05 -0.0001715871207047 0.000309314990510206 1.29197033239813e-05 0.000583742294235634 2.0300731693711e-07 0.000261784259905917 0.00011275032881713 0.000236000764854494 2.78428676272795e-05 0.000158352473665437 0.000159108123526702 0.000266397396525635 0.000314375293625237 0.000254777234066598 0.000156464868987689
"282" 3.56617075976296e-05 -0.000168869746239324 0.000330188792797072 1.97373055697801e-05 0.000612176398322105 4.3162313100176e-06 0.000281220184886802 0.000115727394047467 0.000257449797982506 3.64304836083752e-05 0.000169036673628143 0.000167605005236773 0.000281441368052534 0.000336500922676949 0.000270051902614883 0.000163119655009231
"283" 5.08257086397726e-05 -0.000166322204718573 0.000350854842509129 2.60093814753212e-05 0.000638536594619883 7.33168764046034e-06 0.000299421491799726 0.000118367093204968 0.00027741531805223 4.41632638128258e-05 0.000178769984722809 0.000174707294080694 0.000295185222418689 0.000357284267827719 0.000283824929186017 0.000168457209286421
"284" 6.61297508690941e-05 -0.000163882166947726 0.000371209621388321 3.17520510857646e-05 0.000662635265786706 9.30194527414521e-06 0.000316261342161441 0.000120677304343956 0.000295797438595134 5.10639800595325e-05 0.000187519165447695 0.000180441452631526 0.000307582484054048 0.000376624733590521 0.000296059623099494 0.00017249352053105
"285" 8.1524718500717e-05 -0.000161488238710491 0.000391143910210988 3.69871289155228e-05 0.00068432481397691 1.02919463838655e-05 0.00033161677971647 0.000122676318280501 0.000312528299252943 5.71773902466722e-05 0.000195273513353042 0.000184856768809426 0.000318605388244839 0.000394453745964879 0.000306741483017764 0.000175265068058809
"286" 9.69413217648607e-05 -0.000159069384208938 0.000410553182419823 4.17408482655256e-05 0.000703459765468724 1.03765251278835e-05 0.000345383601032552 0.000124371678910353 0.000327521850324039 6.25365882366298e-05 0.000202011697201637 0.000187992334166271 0.000328217022232271 0.000410687311939854 0.000315850556508894 0.000176800026913752
"287" 0.000112320398618884 -0.000156567172120913 0.000429343476802155 4.60447917453569e-05 0.000719931349486574 9.63741726383787e-06 0.000357460805833972 0.00012577378290654 0.000340734179893837 6.71942750995426e-05 0.000207731359261095 0.000189912886699546 0.000336406120690746 0.000425268507996094 0.000323388524757562 0.000177148495117467
"288" 0.000127594747735712 -0.000153915901348218 0.000447411422322864 4.9934222381995e-05 0.000733649932443276 8.16740819776991e-06 0.000367765452208882 0.000126898521277234 0.00035213369240297 7.12053595411566e-05 0.000212439039166497 0.000190688562424358 0.000343166660658218 0.000438154830690337 0.000329376004457085 0.000176366927275399
"289" 0.000142698930821368 -0.000151050876313899 0.000464673182134571 5.34490018988853e-05 0.00074455323962887 6.06279625454122e-06 0.000376230987251192 0.000127754478647942 0.000361698124198656 7.46297643180092e-05 0.000216145301201562 0.000190393422172781 0.000348497468943608 0.000449312688134226 0.000333826874980583 0.000174514825433217
"290" 0.000157569887449297 -0.000147914019816603 0.00048104362024129 5.66365543784672e-05 0.000752608328869689 3.42567128696331e-06 0.000382807200164549 0.000128353333204892 0.000369423109436032 7.75298591413139e-05 0.000218870227406988 0.000189111919162272 0.000352417282724627 0.000458717465293428 0.000336781253247093 0.000171662779040101
"291" 0.000172145430318496 -0.000144446849088099 0.000496451572268517 5.95408617669849e-05 0.000757804624527555 3.62822242134943e-07 0.000387459815248843 0.000128709780102592 0.000375329481725662 7.99728247644398e-05 0.000220645361409881 0.000186930833746664 0.000354947324812575 0.000466364073863251 0.000338284379049768 0.000167884861675907
"292" 0.000186350921096777 -0.00014060652278674 0.000510817973793258 6.22029402261825e-05 0.000760158149388342 -3.0299152410871e-06 0.00039015493716224 0.000128827306440712 0.00037945072600698 8.20242017898694e-05 0.000221505202435811 0.000183945962760172 0.000356119390729607 0.000472259732066488 0.000338387257642654 0.000163257832742363
"293" 0.000200135489381058 -0.000136345465188556 0.000524091075232886 6.46764992726453e-05 0.000759719342889881 -6.64180235087483e-06 0.000390908284123496 0.000128722716427075 0.000381830467427396 8.37550648153643e-05 0.000221489996503644 0.000180252453725566 0.000355978637579442 0.00047642607423824 0.000337156898335202 0.000157870564215751
"294" 0.00021342464925922 -0.000131630162802038 0.000536203278295281 6.69978839376032e-05 0.000756549089900346 -1.03793707826731e-05 0.000389721423159825 0.000128400378767088 0.000382533925664334 8.52301575849529e-05 0.000220649658613846 0.000175946268037944 0.000354569951724332 0.000478889114790506 0.000334660319961777 0.000151801606436068
"295" 0.000226164412309149 -0.000126431924174437 0.000547121551936276 6.9216765695541e-05 0.000750746950811978 -1.41422745036079e-05 0.00038663040539077 0.000127869386655206 0.000381640128608293 8.65174748452846e-05 0.000219035685652011 0.000171131955627677 0.000351961018298505 0.000479701827494934 0.000330974911788512 0.000145142197490369
"296" 0.000238299089785322 -0.000120735560518636 0.000556802598175215 7.13696290317419e-05 0.000742428829650724 -1.78473960505209e-05 0.000381687983718454 0.00012713863565304 0.000379245247026543 8.76812773605384e-05 0.000216713332069645 0.000165907421339576 0.000348220380135196 0.000478921113042886 0.000326187801824797 0.00013798287814973
"297" 0.00024976960863137 -0.000114527329676097 0.000565222901531586 7.3493327915238e-05 0.0007317330821696 -2.140998569164e-05 0.000374956509053402 0.000126211741262301 0.00037545354376654 8.87793895750509e-05 0.00021373974617298 0.000160368220236264 0.000343424193453021 0.000476616582829696 0.000320387392956302 0.000130412417407603
"298" 0.000260523007549658 -0.000107817216412173 0.000572350191888615 7.56180945754928e-05 0.000718812954459446 -2.47670922957577e-05 0.000366515392462987 0.000125097232614831 0.000370385245880127 8.98711455826606e-05 0.000210185969461428 0.000154616490763973 0.000337659599416862 0.000472872208050667 0.000313662823795136 0.000122518037438927
"299" 0.000270515366137279 -0.000100612041492115 0.000578182676847387 7.77700276204757e-05 0.000703849017818078 -2.78511758565538e-05 0.000356465249331786 0.000123801176180506 0.00036416855720774 9.10042377020868e-05 0.000206120853870198 0.000148744376489014 0.000331016415036718 0.000467779907086444 0.000306114230202411 0.000114387704645708
"300" 0.000279703781755342 -9.29324090832381e-05 0.000582718114045942 7.99734835233239e-05 0.00068703168438232 -3.06143275877063e-05 0.00034492240739212 0.000122324172993024 0.000356932904846177 9.2222241296629e-05 0.000201612690713261 0.000142837422547856 0.000323587440020909 0.000461430252667972 0.000297835360636727 0.000106103478361274
"301" 0.000288048920773762 -8.48178778880576e-05 0.000585959589358768 8.22407585100306e-05 0.00066856529618131 -3.3019918607125e-05 0.000332007540062288 0.000120676836790803 0.000348835389120973 9.35684339772062e-05 0.000196740800882998 0.000136986649587694 0.000315487648097301 0.000453950039627165 0.000288935753873447 9.77552214343331e-05
"302" 0.000295518205625973 -7.63041527489204e-05 0.000587918996498077 8.45786162008621e-05 0.000648663843907783 -3.5043546101841e-05 0.000317860613000856 0.000118862459856008 0.000340021049729626 9.50693236988707e-05 0.00019157976663642 0.000131269678126353 0.00030681747413318 0.000445447644941182 0.000279507672237717 8.9415098692971e-05
"303" 0.000302088671306783 -6.7445225290177e-05 0.000588627867962905 8.69931756567854e-05 0.000627551027529355 -3.66686312798649e-05 0.000302635340718328 0.000116885741629678 0.000330642968587712 9.67515250941239e-05 0.000186197289412987 0.000125758987633063 0.000297692500451976 0.000436048062895682 0.000269654925615847 8.1163180771889e-05
"304" 0.000307737712483024 -5.83048116615594e-05 0.000588114782261498 8.94791098300541e-05 0.000605459336723877 -3.78989953430953e-05 0.000286490034664086 0.000114754285573979 0.00032086780172257 9.86325459580851e-05 0.000180676913103964 0.000120526807944283 0.000288233992539177 0.000425885865303119 0.000259482932286699 7.30726890805648e-05
"305" 0.000312443943137008 -4.89558451838717e-05 0.000586405445797657 9.20190153358386e-05 0.000582611884680334 -3.87511994590688e-05 0.000269583822186919 0.000112467643809595 0.000310845996374243 0.000100715071290921 0.000175084619770026 0.000115628715954112 0.000278549363799658 0.000415087109189994 0.000249079026140546 6.52032706742377e-05
"306" 0.000316205963817148 -3.94731492746717e-05 0.000583558881546108 9.45989914930593e-05 0.00055925129023173 -3.92469013482647e-05 0.000252098585209521 0.000110044496041671 0.000300744968137192 0.000103005951701154 0.000169495777575297 0.000111120779449864 0.000268771343566402 0.000403798149411293 0.000238548741067276 5.76218620085189e-05
"307" 0.000319026622784803 -2.99415137515598e-05 0.000579623167440417 9.7198628897504e-05 0.000535607203096753 -3.94222630508205e-05 0.000234216121023196 0.000107489959891101 0.000290729827467304 0.000105500831733301 0.000163981110795006 0.000107053010649079 0.000259021215469387 0.000392161513510399 0.000227990993817516 5.03913043997608e-05
"308" 0.000320907185932355 -2.04547384983344e-05 0.000574655196172491 9.97837733331878e-05 0.00051190492458179 -3.93281825383473e-05 0.000216115435682336 0.000104814952720278 0.000280943369779038 0.000108176924567161 0.000158604230831421 0.000103457345117533 0.000249411226418155 0.000380307264734688 0.000217486447696491 4.35538948054112e-05
"309" 0.000321854788714584 -1.11059008505432e-05 0.000568718067530384 0.00010232058950055 0.000488366476388142 -3.90227710287399e-05 0.000197972323342383 0.00010203090103077 0.00027154390823986 0.000111017878771669 0.00015342852113841 0.000100370257990302 0.000240072145294803 0.000368386654918069 0.000207126825499737 3.71628849020035e-05
"310" 0.000321895457049869 -1.99390382358858e-06 0.000561878074981451 0.000104769710086993 0.000465202459129937 -3.85744023941768e-05 0.000179976325658164 9.91503701637032e-05 0.000262672031000767 0.000113994103574923 0.000148513196304224 9.7809759302721e-05 0.000231114863099779 0.000356534491019767 0.000196995617637183 3.12579190657248e-05
"311" 0.000321056725236886 6.77677654981785e-06 0.000554208641198157 0.000107089655351703 0.000442620231549229 -3.80586147131061e-05 0.000162305692461361 9.6195023436216e-05 0.000254473021434424 0.000117076108510075 0.000143920488495604 9.57996294792567e-05 0.000222667427636752 0.000344892582453944 0.000187175608347445 2.5878294087329e-05
"312" 0.00031937015614467 1.51111289829782e-05 0.000545787377112034 0.000109236291618679 0.000420808854568391 -3.75538516191031e-05 0.00014514075359829 9.31802456330797e-05 0.000247073329470236 0.000120220793031839 0.000139697780698277 9.43451293901033e-05 0.000214840121636029 0.000333597108533374 0.000177742472923061 2.10582454941587e-05
"313" 0.000316871228959313 2.29045139427087e-05 0.000536693089725572 0.000111157224868653 0.000399942779865543 -3.71489709891659e-05 0.000128641188986462 9.01265587992472e-05 0.000240581682203251 0.000123382155697702 0.000135887308238518 9.34427585607687e-05 0.00020773295808502 0.000322762680764808 0.000168756423006453 1.68175296217142e-05
"314" 0.000313611063159453 3.00625820707333e-05 0.000527007610973895 0.000112808822968478 0.000380185699896871 -3.69319894480011e-05 0.000112981472451808 8.70611479772763e-05 0.000235122550848343 0.000126519800617214 0.000132538985291843 9.30972861836454e-05 0.000201462132044933 0.000312530619524423 0.000160293753936276 1.31894803183432e-05
"315" 0.000309631433446304 3.64821740938169e-05 0.000516803946287191 0.000114133613612788 0.000361677007030257 -3.70000302467497e-05 9.82988613759893e-05 8.40045493516655e-05 0.000230782898340693 0.000129575856721611 0.000129684026148105 9.32932205684741e-05 0.000196120508336208 0.000303011265411349 0.00015240737792718 1.01811613464526e-05
"316" 0.000304999335903252 4.20842537531182e-05 0.000506178032258878 0.000115091538588481 0.000344549062260543 -3.74371959928557e-05 8.47501563874304e-05 8.09928274723409e-05 0.000227650530786164 0.000132504757099078 0.000127362004410881 9.40168153528653e-05 0.000191800324402138 0.000294316317643798 0.000145156135195294 7.81438287832564e-06
"317" 0.000299765325480381 4.67795993834753e-05 0.000495206481784649 0.000115634243051736 0.00032890577043197 -3.83352715201166e-05 7.24582275698818e-05 7.80487927105135e-05 0.000225797547907633 0.000135255117404921 0.000125593773371204 9.52464187848083e-05 0.000188584122738875 0.000286543359531606 0.000138586864500102 6.09789885453233e-06
"318" 0.000294000990328581 5.05058703859277e-05 0.000483974482087869 0.000115717872710183 0.000314835794905077 -3.97750724420508e-05 6.15427760308879e-05 7.52099492188978e-05 0.000225262667944825 0.000137765070143149 0.000124398409754247 9.69530738985543e-05 0.000186540120234241 0.000279775620494135 0.000132739544541117 5.03547286011075e-06
"319" 0.000287769072709327 5.31839937824439e-05 0.000472563771439726 0.000115303044088445 0.000302410139979405 -4.18401381008345e-05 5.21011730215525e-05 7.25081893514085e-05 0.000226110802561773 0.000139995271657826 0.000123797648432567 9.91149045743474e-05 0.000185743075107333 0.000274111118922515 0.000127658977328381 4.63221201323703e-06
"320" 0.000281142769934752 5.47697746547232e-05 0.000461050360108435 0.000114354654694268 0.000291670829299615 -4.46021337572008e-05 4.42205480226682e-05 6.99811696712212e-05 0.000228350677129896 0.000141890070196898 0.000123799677436057 0.00010169186725427 0.000186240686325876 0.000269603481834137 0.000123369972224481 4.88533328753859e-06
"321" 0.000274193184762965 5.52225244599881e-05 0.00044951993731457 0.000112848220837575 0.00028264622975806 -4.81197498253519e-05 3.79695920628797e-05 6.76619986082901e-05 0.000231986192009807 0.000143406824036897 0.000124403923206484 0.000104651363396735 0.000188075819471167 0.00026630840809963 0.000119897916925574 5.78999918124452e-06
"322" 0.000267000876162261 5.4514680001292e-05 0.000438042301844561 0.000110763350708911 0.000275343222576085 -5.2444078751353e-05 3.34039530530793e-05 6.55949613170343e-05 0.000237028648616012 0.000144510618871884 0.000125617371023422 0.000107959480997919 0.00019128501851884 0.000264279421669603 0.000117268767835842 7.34770460764372e-06
"323" 0.000259634389824757 5.26359396464351e-05 0.000426691645289409 0.000108086577724346 0.000269744224193763 -5.76126871026825e-05 3.05525664197023e-05 6.38099403304335e-05 0.000243438301047445 0.000145158460215069 0.00012742716738996 0.000111574325611463 0.000195880183535914 0.00026353769804351 0.000115491415284427 9.54120246884448e-06
"324" 0.000252172475455299 4.95820796705743e-05 0.000415534565570442 0.000104812224035879 0.000265812579898174 -6.36510332077882e-05 2.94270549306341e-05 6.23479027195004e-05 0.000251178075079695 0.000145325787783233 0.000129825677134728 0.000115455513833826 0.000201870738608851 0.000264101672976001 0.000114572235951 1.23596742505324e-05
"325" 0.000244693456441422 4.53787457862012e-05 0.000404639106020298 0.000100949970568745 0.000263497817392487 -7.05691174167807e-05 3.00268486799182e-05 6.12484136877606e-05 0.000260205771445733 0.000144997276356266 0.000132800214918658 0.000119571539937115 0.000209251204990913 0.000265979462336284 0.000114522967346763 1.5795063550906e-05
"326" 0.000237267633730437 4.00598041720215e-05 0.000394063479238742 9.6515598906235e-05 0.000262723215646927 -7.83553658737628e-05 3.23237713600713e-05 6.05406954511112e-05 0.000270432826362573 0.000144149488521073 0.000136321979881174 0.000123875083458309 0.000217993120628159 0.000269144554251608 0.000115329261293994 1.98260322378742e-05
"327" 0.000229969943206788 3.36818789970689e-05 0.00038386323600182 9.15372403290902e-05 0.000263393450838641 -8.69847156045744e-05 3.62736695337475e-05 6.02637194281452e-05 0.000281777908759538 0.000142784437719157 0.000140366434349325 0.000128328210012378 0.000228064903507194 0.000273577342638285 0.000116984566398675 2.44391292526657e-05
"328" 0.000222870499919795 2.63085226644547e-05 0.000374090032862334 8.60508080901006e-05 0.000265401280900484 -9.64174183112803e-05 4.18140113833355e-05 6.04489655086042e-05 0.000294152621380371 0.000140907667892744 0.000144911830377256 0.00013290177920833 0.000239419629259373 0.000279241013496557 0.000119479179318674 2.96177998813543e-05
"329" 0.000216035224805725 1.80314861630817e-05 0.000364785561513239 8.01092532422545e-05 0.000268623458297006 -0.000106587741984442 4.88580671939536e-05 6.11168106027542e-05 0.000307430543608311 0.000138526689798491 0.000149912888869491 0.000137551825510344 0.000251987296595972 0.00028607020957725 0.000122787344523649 3.53375619654673e-05
"330" 0.000209530581655965 8.95488732719413e-06 0.000355995354142939 7.37768119845655e-05 0.000272919020358138 -0.000117416235817644 5.73075022452381e-05 6.22994272262791e-05 0.000321501582683611 0.000135674305162865 0.000155344264995951 0.000142254369540924 0.000265696887720171 0.000294004800965474 0.000126894164515588 4.15826675641101e-05
"331" 0.000203411712596205 -7.96540438247081e-07 0.000347752183004473 6.71210159999872e-05 0.000278132890767931 -0.000128803375558496 6.70367484919574e-05 6.40132643726546e-05 0.00033622181664379 0.000132375929867887 0.000161154649398201 0.000146973608728252 0.000280451796872811 0.000302958178150729 0.000131761906969062 4.83301272876909e-05
"332" 0.000197740111291001 -1.10917395477687e-05 0.000340086369497462 6.02335927515556e-05 0.000284107756201627 -0.000140629519271756 7.79108876822702e-05 6.62748634527721e-05 0.000351454107541469 0.000128681349495331 0.000167310484534571 0.000151687113156733 0.000296151974765889 0.000312838397113017 0.000137364037205249 5.55590045887226e-05
"333" 0.000192562047885194 -2.17678889586103e-05 0.000333024121038644 5.32087151636172e-05 0.000290668591323025 -0.000152756914247964 8.977122024795e-05 6.90938685644608e-05 0.000367044262196336 0.000124639708577849 0.00017376285229481 0.000156366139403933 0.000312679743396936 0.000323540827472352 0.000143664002964072 6.32476306008455e-05
"334" 0.000187922325020153 -3.26688980476124e-05 0.000326581003424347 4.61499500707105e-05 0.000297639656529056 -0.00016503681733396 0.000102444481386347 7.24749051653133e-05 0.00038284376512092 0.000120316806092465 0.000180465697775453 0.000160996168560922 0.000329906396182358 0.000334947958255563 0.000150617597820214 7.13710398523937e-05
"335" 0.000183864856819157 -4.36045995399681e-05 0.000320771634530197 3.91818469510647e-05 0.00030483914798074 -0.000177293639070704 0.000115754537781159 7.64190371237771e-05 0.000398688241698933 0.000115787617781483 0.000187373285525645 0.000165558576253944 0.00034769939324506 0.000346944320828716 0.000158190436980301 7.99126763264362e-05
"336" 0.000180417383078197 -5.43858291875596e-05 0.000315606724257071 3.24278754322937e-05 0.00031208009605004 -0.000189342788811109 0.000129494048272558 8.09133435095066e-05 0.000414417901214843 0.000111130066176961 0.000194433916140184 0.00017004133786451 0.000365906107654591 0.000359388432513087 0.000166331657225569 8.8846058982359e-05
"337" 0.000177611003077537 -6.4811293309272e-05 0.000311088189239751 2.6019832709602e-05 0.000319178435517115 -0.000200988578266683 0.000143458988157117 8.59450138405884e-05 0.000429867944165144 0.000106432153965432 0.000201604976439797 0.000174431412220217 0.000384366349188196 0.000372144055208398 0.000174993559188177 9.81490110201874e-05
"338" 0.000175459280109696 -7.46777808084353e-05 0.000307209377890679 2.01021881007903e-05 0.000325951582074725 -0.000212022651465054 0.000157421664295103 9.14936923116186e-05 0.000444888916569597 0.00010179490064569 0.000208834946079622 0.000178729745733758 0.000402921800152838 0.000385078064170205 0.000184131754162282 0.000107801793899938
"339" 0.000173984707040086 -8.37617150216267e-05 0.00030397325323313 1.48219087802927e-05 0.000332223835225466 -0.000222222682090953 0.000171163047834047 9.75314642978285e-05 0.000459322106933305 9.73222596662573e-05 0.000216084594693195 0.000182933243317087 0.000421401897469525 0.000398040408321996 0.000193697257048111 0.000117780168735198
"340" 0.000173183655482452 -9.18496764343106e-05 0.000301358187998226 1.0324777737773e-05 0.000337819293408463 -0.000231367177549137 0.000184445835081208 0.00010402275141398 0.000473024447438991 9.31219604986568e-05 0.000223302254972517 0.000187045750195771 0.000439636267072803 0.00041088742223429 0.000203636861846294 0.000128064483491502
"341" 0.000173057859171779 -9.87255192473396e-05 0.00029935043654324 6.76964121222952e-06 0.000342582202599928 -0.000239224928334401 0.000197034809125348 0.000110920129413215 0.000485848378492625 8.93071155506066e-05 0.000230447927018098 0.000191069919947437 0.00045743826875439 0.000423470020003501 0.000213900762320852 0.000138629322853876
"342" 0.000173599217843857 -0.000104168587576376 0.000297926876315665 4.30649137553254e-06 0.000346359311535325 -0.000245565535774047 0.000208690070903923 0.000118179809419096 0.000497675633724901 8.59986795252877e-05 0.000237482404495099 0.000195021250754194 0.000474642687384925 0.00043565211085281 0.000224439827905191 0.00014945567393543
"343" 0.000174787948805736 -0.000107968336936206 0.000297066279798587 3.08322231854577e-06 0.000349015667970358 -0.000250158880518027 0.00021917652498541 0.000125742883078569 0.00050837768825934 8.33155424880234e-05 0.000244367757232415 0.000198908158970983 0.000491061657779714 0.000447288342629552 0.000235197943241435 0.000160517657477348
"344" 0.00017660513522874 -0.000109919400524471 0.000296735155249887 3.2539315070097e-06 0.000350432750150273 -0.000252779288395522 0.000228266245246516 0.000133543605162626 0.000517858539202886 8.13797062019627e-05 0.000251068715847709 0.000202748571860997 0.000506525092901094 0.000458244250006277 0.000246128506918327 0.000171792095544949
"345" 0.000179006334593877 -0.000109829440095766 0.000296896208551164 4.9519707854682e-06 0.000350500687211896 -0.000253213944922606 0.00023572041814942 0.000141507655808517 0.000526014156593674 8.03049052872512e-05 0.000257551348799119 0.000206555537346796 0.000520847734277475 0.000468386641348564 0.00025717199524958 0.000183248639549364
"346" 0.000181959782973347 -0.000107512439682816 0.000297511261450291 8.31509665447484e-06 0.000349133934178681 -0.000251249302998558 0.00024132821233644 0.000149565665094738 0.000532776111577212 8.02124509208594e-05 0.000263787115631173 0.000210350689838241 0.000533866492363541 0.000477596606528399 0.000268281475544829 0.00019486120695519
